5998.03096,1.60258
5997.00125,1.60258
5995.97155,1.60258
5994.94184,1.60258
5993.91214,1.60258
5992.88243,1.60258
5991.85273,1.60258
5990.82302,1.60258
5989.79332,1.60258
5988.76361,1.60258
5987.73391,1.60258
5986.70420,1.60258
5985.67450,1.60258
5984.64479,1.60099
5983.61509,1.59934
5982.58538,1.59787
5981.55568,1.59685
5980.52597,1.59597
5979.49627,1.59471
5978.46656,1.59337
5977.43686,1.59263
5976.40715,1.59257
5975.37745,1.59271
5974.34774,1.59267
5973.31804,1.59258
5972.28833,1.59279
5971.25863,1.59353
5970.22892,1.59483
5969.19922,1.59655
5968.16951,1.59814
5967.13981,1.59927
5966.11010,1.60014
5965.08040,1.60072
5964.05069,1.60081
5963.02099,1.60043
5961.99128,1.59983
5960.96158,1.59935
5959.93187,1.59950
5958.90217,1.60036
5957.87247,1.60167
5956.84276,1.60312
5955.81306,1.60447
5954.78335,1.60558
5953.75365,1.60641
5952.72394,1.60670
5951.69424,1.60618
5950.66453,1.60508
5949.63483,1.60390
5948.60512,1.60320
5947.57542,1.60311
5946.54571,1.60301
5945.51601,1.60251
5944.48630,1.60186
5943.45660,1.60123
5942.42689,1.60079
5941.39719,1.60048
5940.36748,1.60007
5939.33778,1.59977
5938.30807,1.59978
5937.27837,1.60038
5936.24866,1.60171
5935.21896,1.60362
5934.18925,1.60586
5933.15955,1.60810
5932.12984,1.61034
5931.10014,1.61261
5930.07043,1.61455
5929.04073,1.61551
5928.01102,1.61556
5926.98132,1.61586
5925.95161,1.61690
5924.92191,1.61786
5923.89220,1.61832
5922.86250,1.61822
5921.83279,1.61743
5920.80309,1.61639
5919.77338,1.61568
5918.74368,1.61556
5917.71397,1.61587
5916.68427,1.61597
5915.65456,1.61569
5914.62486,1.61530
5913.59515,1.61511
5912.56545,1.61567
5911.53575,1.61685
5910.50604,1.61795
5909.47634,1.61868
5908.44663,1.61926
5907.41693,1.61993
5906.38722,1.62031
5905.35752,1.61985
5904.32781,1.61910
5903.29811,1.61922
5902.26840,1.62014
5901.23870,1.62101
5900.20899,1.62129
5899.17929,1.62100
5898.14958,1.62056
5897.11988,1.62041
5896.09017,1.62069
5895.06047,1.62095
5894.03076,1.62094
5893.00106,1.62091
5891.97135,1.62077
5890.94165,1.62068
5889.91194,1.62092
5888.88224,1.62136
5887.85253,1.62185
5886.82283,1.62218
5885.79312,1.62228
5884.76342,1.62211
5883.73371,1.62156
5882.70401,1.62093
5881.67430,1.62050
5880.64460,1.62023
5879.61489,1.62042
5878.58519,1.62100
5877.55548,1.62113
5876.52578,1.62095
5875.49607,1.62103
5874.46637,1.62147
5873.43666,1.62257
5872.40696,1.62415
5871.37725,1.62530
5870.34755,1.62561
5869.31784,1.62575
5868.28814,1.62666
5867.25844,1.62846
5866.22873,1.63061
5865.19903,1.63250
5864.16932,1.63377
5863.13962,1.63459
5862.10991,1.63530
5861.08021,1.63574
5860.05050,1.63546
5859.02080,1.63471
5857.99109,1.63429
5856.96139,1.63422
5855.93168,1.63425
5854.90198,1.63441
5853.87227,1.63426
5852.84257,1.63376
5851.81286,1.63334
5850.78316,1.63296
5849.75345,1.63265
5848.72375,1.63278
5847.69404,1.63334
5846.66434,1.63384
5845.63463,1.63420
5844.60493,1.63483
5843.57522,1.63592
5842.54552,1.63730
5841.51581,1.63838
5840.48611,1.63876
5839.45640,1.63891
5838.42670,1.63938
5837.39699,1.64008
5836.36729,1.64047
5835.33758,1.64065
5834.30788,1.64128
5833.27817,1.64214
5832.24847,1.64272
5831.21876,1.64329
5830.18906,1.64387
5829.15935,1.64435
5828.12965,1.64451
5827.09994,1.64387
5826.07024,1.64307
5825.04053,1.64342
5824.01083,1.64466
5822.98113,1.64568
5821.95142,1.64600
5820.92172,1.64580
5819.89201,1.64515
5818.86231,1.64394
5817.83260,1.64257
5816.80290,1.64167
5815.77319,1.64155
5814.74349,1.64246
5813.71378,1.64403
5812.68408,1.64542
5811.65437,1.64645
5810.62467,1.64769
5809.59496,1.64914
5808.56526,1.65025
5807.53555,1.65115
5806.50585,1.65215
5805.47614,1.65296
5804.44644,1.65321
5803.41673,1.65274
5802.38703,1.65227
5801.35732,1.65267
5800.32762,1.65361
5799.29791,1.65408
5798.26821,1.65387
5797.23850,1.65355
5796.20880,1.65325
5795.17909,1.65253
5794.14939,1.65131
5793.11968,1.65032
5792.08998,1.65024
5791.06027,1.65076
5790.03057,1.65153
5789.00086,1.65247
5787.97116,1.65334
5786.94145,1.65408
5785.91175,1.65489
5784.88204,1.65577
5783.85234,1.65655
5782.82263,1.65715
5781.79293,1.65766
5780.76322,1.65817
5779.73352,1.65867
5778.70382,1.65920
5777.67411,1.65992
5776.64441,1.66054
5775.61470,1.66078
5774.58500,1.66072
5773.55529,1.66055
5772.52559,1.66054
5771.49588,1.66058
5770.46618,1.66028
5769.43647,1.65950
5768.40677,1.65849
5767.37706,1.65746
5766.34736,1.65639
5765.31765,1.65528
5764.28795,1.65411
5763.25824,1.65268
5762.22854,1.65110
5761.19883,1.64985
5760.16913,1.64911
5759.13942,1.64848
5758.10972,1.64762
5757.08001,1.64669
5756.05031,1.64615
5755.02060,1.64595
5753.99090,1.64576
5752.96119,1.64552
5751.93149,1.64526
5750.90178,1.64513
5749.87208,1.64533
5748.84237,1.64562
5747.81267,1.64573
5746.78296,1.64543
5745.75326,1.64456
5744.72355,1.64348
5743.69385,1.64288
5742.66414,1.64290
5741.63444,1.64316
5740.60473,1.64331
5739.57503,1.64336
5738.54532,1.64344
5737.51562,1.64376
5736.48591,1.64460
5735.45621,1.64584
5734.42650,1.64701
5733.39680,1.64781
5732.36710,1.64846
5731.33739,1.64935
5730.30769,1.65018
5729.27798,1.65058
5728.24828,1.65072
5727.21857,1.65097
5726.18887,1.65121
5725.15916,1.65083
5724.12946,1.64957
5723.09975,1.64775
5722.07005,1.64592
5721.04034,1.64457
5720.01064,1.64414
5718.98093,1.64435
5717.95123,1.64432
5716.92152,1.64393
5715.89182,1.64362
5714.86211,1.64345
5713.83241,1.64335
5712.80270,1.64363
5711.77300,1.64466
5710.74329,1.64608
5709.71359,1.64721
5708.68388,1.64801
5707.65418,1.64906
5706.62447,1.65059
5705.59477,1.65207
5704.56506,1.65295
5703.53536,1.65337
5702.50565,1.65366
5701.47595,1.65366
5700.44624,1.65324
5699.41654,1.65269
5698.38683,1.65202
5697.35713,1.65113
5696.32742,1.65017
5695.29772,1.64927
5694.26801,1.64842
5693.23831,1.64763
5692.20860,1.64700
5691.17890,1.64648
5690.14919,1.64601
5689.11949,1.64567
5688.08979,1.64561
5687.06008,1.64608
5686.03038,1.64670
5685.00067,1.64704
5683.97097,1.64765
5682.94126,1.64883
5681.91156,1.65015
5680.88185,1.65111
5679.85215,1.65142
5678.82244,1.65131
5677.79274,1.65132
5676.76303,1.65174
5675.73333,1.65242
5674.70362,1.65295
5673.67392,1.65305
5672.64421,1.65305
5671.61451,1.65338
5670.58480,1.65405
5669.55510,1.65463
5668.52539,1.65459
5667.49569,1.65399
5666.46598,1.65346
5665.43628,1.65318
5664.40657,1.65282
5663.37687,1.65233
5662.34716,1.65180
5661.31746,1.65110
5660.28775,1.65026
5659.25805,1.64963
5658.22834,1.64917
5657.19864,1.64875
5656.16893,1.64827
5655.13923,1.64751
5654.10952,1.64649
5653.07982,1.64555
5652.05011,1.64475
5651.02041,1.64363
5649.99070,1.64224
5648.96100,1.64114
5647.93129,1.64070
5646.90159,1.64063
5645.87188,1.64028
5644.84218,1.63954
5643.81248,1.63873
5642.78277,1.63822
5641.75307,1.63812
5640.72336,1.63823
5639.69366,1.63838
5638.66395,1.63861
5637.63425,1.63876
5636.60454,1.63884
5635.57484,1.63919
5634.54513,1.63975
5633.51543,1.64042
5632.48572,1.64127
5631.45602,1.64196
5630.42631,1.64188
5629.39661,1.64093
5628.36690,1.63953
5627.33720,1.63820
5626.30749,1.63730
5625.27779,1.63704
5624.24808,1.63737
5623.21838,1.63794
5622.18867,1.63823
5621.15897,1.63814
5620.12926,1.63795
5619.09956,1.63793
5618.06985,1.63806
5617.04015,1.63831
5616.01044,1.63882
5614.98074,1.63950
5613.95103,1.64007
5612.92133,1.64053
5611.89162,1.64100
5610.86192,1.64137
5609.83221,1.64155
5608.80251,1.64153
5607.77280,1.64129
5606.74310,1.64101
5605.71339,1.64098
5604.68369,1.64101
5603.65398,1.64083
5602.62428,1.64068
5601.59457,1.64080
5600.56487,1.64119
5599.53517,1.64179
5598.50546,1.64230
5597.47576,1.64237
5596.44605,1.64201
5595.41635,1.64149
5594.38664,1.64102
5593.35694,1.64066
5592.32723,1.64046
5591.29753,1.64036
5590.26782,1.64004
5589.23812,1.63947
5588.20841,1.63867
5587.17871,1.63747
5586.14900,1.63621
5585.11930,1.63564
5584.08959,1.63570
5583.05989,1.63619
5582.03018,1.63728
5581.00048,1.63842
5579.97077,1.63888
5578.94107,1.63910
5577.91136,1.63978
5576.88166,1.64093
5575.85195,1.64209
5574.82225,1.64268
5573.79254,1.64269
5572.76284,1.64252
5571.73313,1.64220
5570.70343,1.64182
5569.67372,1.64167
5568.64402,1.64165
5567.61431,1.64125
5566.58461,1.64035
5565.55490,1.63923
5564.52520,1.63815
5563.49549,1.63735
5562.46579,1.63711
5561.43608,1.63747
5560.40638,1.63798
5559.37667,1.63813
5558.34697,1.63824
5557.31726,1.63872
5556.28756,1.63923
5555.25785,1.63979
5554.22815,1.64051
5553.19845,1.64099
5552.16874,1.64118
5551.13904,1.64121
5550.10933,1.64086
5549.07963,1.64032
5548.04992,1.63991
5547.02022,1.63961
5545.99051,1.63945
5544.96081,1.63927
5543.93110,1.63869
5542.90140,1.63782
5541.87169,1.63709
5540.84199,1.63680
5539.81228,1.63708
5538.78258,1.63779
5537.75287,1.63831
5536.72317,1.63825
5535.69346,1.63798
5534.66376,1.63816
5533.63405,1.63913
5532.60435,1.64045
5531.57464,1.64153
5530.54494,1.64235
5529.51523,1.64281
5528.48553,1.64296
5527.45582,1.64323
5526.42612,1.64357
5525.39641,1.64387
5524.36671,1.64450
5523.33700,1.64556
5522.30730,1.64650
5521.27759,1.64675
5520.24789,1.64628
5519.21818,1.64560
5518.18848,1.64507
5517.15877,1.64468
5516.12907,1.64435
5515.09936,1.64387
5514.06966,1.64281
5513.03995,1.64131
5512.01025,1.64017
5510.98054,1.63960
5509.95084,1.63912
5508.92114,1.63849
5507.89143,1.63772
5506.86173,1.63682
5505.83202,1.63577
5504.80232,1.63446
5503.77261,1.63344
5502.74291,1.63335
5501.71320,1.63410
5500.68350,1.63535
5499.65379,1.63661
5498.62409,1.63752
5497.59438,1.63806
5496.56468,1.63851
5495.53497,1.63904
5494.50527,1.63957
5493.47556,1.64001
5492.44586,1.64030
5491.41615,1.64062
5490.38645,1.64110
5489.35674,1.64159
5488.32704,1.64213
5487.29733,1.64269
5486.26763,1.64286
5485.23792,1.64272
5484.20822,1.64250
5483.17851,1.64212
5482.14881,1.64150
5481.11910,1.64078
5480.08940,1.64032
5479.05969,1.64050
5478.02999,1.64104
5477.00028,1.64144
5475.97058,1.64168
5474.94087,1.64175
5473.91117,1.64148
5472.88146,1.64082
5471.85176,1.64010
5470.82205,1.63929
5469.79235,1.63815
5468.76264,1.63695
5467.73294,1.63622
5466.70323,1.63619
5465.67353,1.63654
5464.64383,1.63678
5463.61412,1.63668
5462.58442,1.63631
5461.55471,1.63603
5460.52501,1.63599
5459.49530,1.63589
5458.46560,1.63563
5457.43589,1.63569
5456.40619,1.63649
5455.37648,1.63765
5454.34678,1.63849
5453.31707,1.63923
5452.28737,1.64022
5451.25766,1.64115
5450.22796,1.64170
5449.19825,1.64189
5448.16855,1.64212
5447.13884,1.64261
5446.10914,1.64296
5445.07943,1.64276
5444.04973,1.64241
5443.02002,1.64241
5441.99032,1.64243
5440.96061,1.64201
5439.93091,1.64172
5438.90120,1.64198
5437.87150,1.64219
5436.84179,1.64184
5435.81209,1.64120
5434.78238,1.64093
5433.75268,1.64119
5432.72297,1.64166
5431.69327,1.64198
5430.66356,1.64206
5429.63386,1.64230
5428.60415,1.64294
5427.57445,1.64345
5426.54474,1.64340
5425.51504,1.64282
5424.48533,1.64193
5423.45563,1.64112
5422.42592,1.64080
5421.39622,1.64083
5420.36652,1.64076
5419.33681,1.64045
5418.30711,1.63990
5417.27740,1.63903
5416.24770,1.63814
5415.21799,1.63797
5414.18829,1.63826
5413.15858,1.63801
5412.12888,1.63733
5411.09917,1.63710
5410.06947,1.63751
5409.03976,1.63797
5408.01006,1.63808
5406.98035,1.63787
5405.95065,1.63751
5404.92094,1.63703
5403.89124,1.63645
5402.86153,1.63589
5401.83183,1.63522
5400.80212,1.63433
5399.77242,1.63364
5398.74271,1.63368
5397.71301,1.63436
5396.68330,1.63491
5395.65360,1.63477
5394.62389,1.63418
5393.59419,1.63340
5392.56448,1.63260
5391.53478,1.63211
5390.50507,1.63223
5389.47537,1.63300
5388.44566,1.63407
5387.41596,1.63537
5386.38625,1.63677
5385.35655,1.63789
5384.32684,1.63847
5383.29714,1.63840
5382.26743,1.63798
5381.23773,1.63774
5380.20802,1.63796
5379.17832,1.63849
5378.14861,1.63876
5377.11891,1.63846
5376.08920,1.63772
5375.05950,1.63684
5374.02980,1.63637
5373.00009,1.63641
5371.97039,1.63640
5370.94068,1.63609
5369.91098,1.63569
5368.88127,1.63537
5367.85157,1.63544
5366.82186,1.63594
5365.79216,1.63667
5364.76245,1.63769
5363.73275,1.63883
5362.70304,1.63966
5361.67334,1.64020
5360.64363,1.64061
5359.61393,1.64065
5358.58422,1.64028
5357.55452,1.64004
5356.52481,1.64007
5355.49511,1.63993
5354.46540,1.63923
5353.43570,1.63806
5352.40599,1.63696
5351.37629,1.63618
5350.34658,1.63564
5349.31688,1.63551
5348.28717,1.63559
5347.25747,1.63525
5346.22776,1.63432
5345.19806,1.63336
5344.16835,1.63315
5343.13865,1.63357
5342.10894,1.63381
5341.07924,1.63367
5340.04953,1.63383
5339.01983,1.63454
5337.99012,1.63535
5336.96042,1.63622
5335.93071,1.63680
5334.90101,1.63672
5333.87130,1.63638
5332.84160,1.63611
5331.81189,1.63588
5330.78219,1.63566
5329.75249,1.63553
5328.72278,1.63559
5327.69308,1.63587
5326.66337,1.63628
5325.63367,1.63673
5324.60396,1.63732
5323.57426,1.63790
5322.54455,1.63806
5321.51485,1.63820
5320.48514,1.63923
5319.45544,1.64098
5318.42573,1.64235
5317.39603,1.64302
5316.36632,1.64343
5315.33662,1.64397
5314.30691,1.64465
5313.27721,1.64540
5312.24750,1.64626
5311.21780,1.64684
5310.18809,1.64703
5309.15839,1.64711
5308.12868,1.64710
5307.09898,1.64713
5306.06927,1.64716
5305.03957,1.64702
5304.00986,1.64681
5302.98016,1.64692
5301.95045,1.64740
5300.92075,1.64771
5299.89104,1.64773
5298.86134,1.64780
5297.83163,1.64808
5296.80193,1.64874
5295.77222,1.64956
5294.74252,1.65008
5293.71281,1.65036
5292.68311,1.65060
5291.65340,1.65077
5290.62370,1.65114
5289.59399,1.65199
5288.56429,1.65326
5287.53458,1.65443
5286.50488,1.65497
5285.47518,1.65507
5284.44547,1.65526
5283.41577,1.65569
5282.38606,1.65617
5281.35636,1.65649
5280.32665,1.65666
5279.29695,1.65693
5278.26724,1.65765
5277.23754,1.65875
5276.20783,1.65985
5275.17813,1.66068
5274.14842,1.66119
5273.11872,1.66160
5272.08901,1.66237
5271.05931,1.66349
5270.02960,1.66469
5268.99990,1.66619
5267.97019,1.66787
5266.94049,1.66916
5265.91078,1.66993
5264.88108,1.67032
5263.85137,1.67074
5262.82167,1.67122
5261.79196,1.67129
5260.76226,1.67109
5259.73255,1.67129
5258.70285,1.67178
5257.67314,1.67211
5256.64344,1.67230
5255.61373,1.67252
5254.58403,1.67290
5253.55432,1.67347
5252.52462,1.67418
5251.49491,1.67466
5250.46521,1.67467
5249.43550,1.67494
5248.40580,1.67587
5247.37609,1.67699
5246.34639,1.67788
5245.31668,1.67891
5244.28698,1.68025
5243.25727,1.68115
5242.22757,1.68132
5241.19786,1.68139
5240.16816,1.68167
5239.13846,1.68217
5238.10875,1.68272
5237.07905,1.68301
5236.04934,1.68332
5235.01964,1.68418
5233.98993,1.68531
5232.96023,1.68634
5231.93052,1.68736
5230.90082,1.68845
5229.87111,1.68959
5228.84141,1.69096
5227.81170,1.69268
5226.78200,1.69427
5225.75229,1.69537
5224.72259,1.69609
5223.69288,1.69648
5222.66318,1.69685
5221.63347,1.69743
5220.60377,1.69789
5219.57406,1.69776
5218.54436,1.69738
5217.51465,1.69750
5216.48495,1.69789
5215.45524,1.69814
5214.42554,1.69852
5213.39583,1.69904
5212.36613,1.69933
5211.33642,1.69956
5210.30672,1.69997
5209.27701,1.70046
5208.24731,1.70097
5207.21760,1.70141
5206.18790,1.70187
5205.15819,1.70257
5204.12849,1.70327
5203.09878,1.70382
5202.06908,1.70427
5201.03937,1.70458
5200.00967,1.70492
5198.97996,1.70565
5197.95026,1.70667
5196.92055,1.70743
5195.89085,1.70781
5194.86115,1.70825
5193.83144,1.70915
5192.80174,1.71027
5191.77203,1.71116
5190.74233,1.71214
5189.71262,1.71326
5188.68292,1.71388
5187.65321,1.71377
5186.62351,1.71335
5185.59380,1.71309
5184.56410,1.71312
5183.53439,1.71326
5182.50469,1.71329
5181.47498,1.71329
5180.44528,1.71327
5179.41557,1.71307
5178.38587,1.71293
5177.35616,1.71308
5176.32646,1.71336
5175.29675,1.71362
5174.26705,1.71364
5173.23734,1.71336
5172.20764,1.71290
5171.17793,1.71243
5170.14823,1.71219
5169.11852,1.71225
5168.08882,1.71245
5167.05911,1.71301
5166.02941,1.71374
5164.99970,1.71377
5163.97000,1.71310
5162.94029,1.71261
5161.91059,1.71271
5160.88088,1.71323
5159.85118,1.71385
5158.82147,1.71425
5157.79177,1.71423
5156.76206,1.71402
5155.73236,1.71404
5154.70265,1.71420
5153.67295,1.71437
5152.64324,1.71472
5151.61354,1.71519
5150.58384,1.71548
5149.55413,1.71567
5148.52443,1.71613
5147.49472,1.71678
5146.46502,1.71740
5145.43531,1.71817
5144.40561,1.71917
5143.37590,1.72019
5142.34620,1.72103
5141.31649,1.72157
5140.28679,1.72180
5139.25708,1.72179
5138.22738,1.72157
5137.19767,1.72091
5136.16797,1.71990
5135.13826,1.71903
5134.10856,1.71836
5133.07885,1.71771
5132.04915,1.71724
5131.01944,1.71709
5129.98974,1.71707
5128.96003,1.71716
5127.93033,1.71760
5126.90062,1.71831
5125.87092,1.71899
5124.84121,1.71939
5123.81151,1.71952
5122.78180,1.71951
5121.75210,1.71948
5120.72239,1.71950
5119.69269,1.71947
5118.66298,1.71931
5117.63328,1.71918
5116.60357,1.71901
5115.57387,1.71824
5114.54416,1.71699
5113.51446,1.71596
5112.48475,1.71521
5111.45505,1.71448
5110.42534,1.71408
5109.39564,1.71396
5108.36593,1.71358
5107.33623,1.71317
5106.30653,1.71325
5105.27682,1.71356
5104.24712,1.71400
5103.21741,1.71483
5102.18771,1.71577
5101.15800,1.71659
5100.12830,1.71731
5099.09859,1.71772
5098.06889,1.71771
5097.03918,1.71733
5096.00948,1.71676
5094.97977,1.71635
5093.95007,1.71627
5092.92036,1.71631
5091.89066,1.71616
5090.86095,1.71580
5089.83125,1.71547
5088.80154,1.71502
5087.77184,1.71400
5086.74213,1.71282
5085.71243,1.71212
5084.68272,1.71148
5083.65302,1.71054
5082.62331,1.70979
5081.59361,1.70958
5080.56390,1.70983
5079.53420,1.71026
5078.50449,1.71046
5077.47479,1.71041
5076.44508,1.71057
5075.41538,1.71065
5074.38567,1.70999
5073.35597,1.70901
5072.32626,1.70827
5071.29656,1.70778
5070.26685,1.70737
5069.23715,1.70672
5068.20744,1.70585
5067.17774,1.70490
5066.14803,1.70383
5065.11833,1.70295
5064.08862,1.70260
5063.05892,1.70267
5062.02921,1.70304
5060.99951,1.70360
5059.96981,1.70416
5058.94010,1.70461
5057.91040,1.70518
5056.88069,1.70621
5055.85099,1.70730
5054.82128,1.70774
5053.79158,1.70777
5052.76187,1.70800
5051.73217,1.70844
5050.70246,1.70873
5049.67276,1.70888
5048.64305,1.70916
5047.61335,1.70930
5046.58364,1.70888
5045.55394,1.70812
5044.52423,1.70745
5043.49453,1.70694
5042.46482,1.70636
5041.43512,1.70595
5040.40541,1.70613
5039.37571,1.70635
5038.34600,1.70587
5037.31630,1.70488
5036.28659,1.70388
5035.25689,1.70296
5034.22718,1.70201
5033.19748,1.70128
5032.16777,1.70079
5031.13807,1.70005
5030.10836,1.69911
5029.07866,1.69861
5028.04895,1.69888
5027.01925,1.69945
5025.98954,1.69979
5024.95984,1.69983
5023.93013,1.69969
5022.90043,1.69934
5021.87072,1.69906
5020.84102,1.69919
5019.81131,1.69961
5018.78161,1.70016
5017.75190,1.70087
5016.72220,1.70171
5015.69250,1.70240
5014.66279,1.70248
5013.63309,1.70208
5012.60338,1.70177
5011.57368,1.70186
5010.54397,1.70223
5009.51427,1.70245
5008.48456,1.70220
5007.45486,1.70171
5006.42515,1.70140
5005.39545,1.70157
5004.36574,1.70200
5003.33604,1.70205
5002.30633,1.70135
5001.27663,1.70016
5000.24692,1.69897
4999.21722,1.69792
4998.18751,1.69696
4997.15781,1.69614
4996.12810,1.69550
4995.09840,1.69511
4994.06869,1.69502
4993.03899,1.69501
4992.00928,1.69488
4990.97958,1.69457
4989.94987,1.69414
4988.92017,1.69378
4987.89046,1.69360
4986.86076,1.69346
4985.83105,1.69315
4984.80135,1.69275
4983.77164,1.69258
4982.74194,1.69272
4981.71223,1.69318
4980.68253,1.69393
4979.65282,1.69457
4978.62312,1.69504
4977.59341,1.69574
4976.56371,1.69650
4975.53400,1.69678
4974.50430,1.69680
4973.47459,1.69693
4972.44489,1.69713
4971.41519,1.69728
4970.38548,1.69729
4969.35578,1.69719
4968.32607,1.69705
4967.29637,1.69670
4966.26666,1.69610
4965.23696,1.69550
4964.20725,1.69490
4963.17755,1.69423
4962.14784,1.69370
4961.11814,1.69332
4960.08843,1.69285
4959.05873,1.69213
4958.02902,1.69126
4956.99932,1.69060
4955.96961,1.69027
4954.93991,1.69011
4953.91020,1.69004
4952.88050,1.69007
4951.85079,1.69000
4950.82109,1.68973
4949.79138,1.68970
4948.76168,1.69006
4947.73197,1.69051
4946.70227,1.69093
4945.67256,1.69126
4944.64286,1.69148
4943.61315,1.69147
4942.58345,1.69148
4941.55374,1.69190
4940.52404,1.69244
4939.49433,1.69265
4938.46463,1.69276
4937.43492,1.69286
4936.40522,1.69246
4935.37551,1.69145
4934.34581,1.69027
4933.31610,1.68932
4932.28640,1.68868
4931.25669,1.68828
4930.22699,1.68797
4929.19728,1.68767
4928.16758,1.68758
4927.13788,1.68772
4926.10817,1.68805
4925.07847,1.68882
4924.04876,1.68992
4923.01906,1.69090
4921.98935,1.69136
4920.95965,1.69150
4919.92994,1.69184
4918.90024,1.69269
4917.87053,1.69421
4916.84083,1.69599
4915.81112,1.69723
4914.78142,1.69786
4913.75171,1.69825
4912.72201,1.69823
4911.69230,1.69758
4910.66260,1.69666
4909.63289,1.69600
4908.60319,1.69586
4907.57348,1.69583
4906.54378,1.69541
4905.51407,1.69476
4904.48437,1.69445
4903.45466,1.69447
4902.42496,1.69438
4901.39525,1.69418
4900.36555,1.69423
4899.33584,1.69450
4898.30614,1.69457
4897.27643,1.69454
4896.24673,1.69504
4895.21702,1.69618
4894.18732,1.69755
4893.15761,1.69882
4892.12791,1.69972
4891.09820,1.69995
4890.06850,1.69937
4889.03879,1.69841
4888.00909,1.69771
4886.97938,1.69743
4885.94968,1.69742
4884.91997,1.69750
4883.89027,1.69738
4882.86056,1.69694
4881.83086,1.69650
4880.80116,1.69640
4879.77145,1.69661
4878.74175,1.69665
4877.71204,1.69636
4876.68234,1.69614
4875.65263,1.69629
4874.62293,1.69652
4873.59322,1.69650
4872.56352,1.69651
4871.53381,1.69689
4870.50411,1.69737
4869.47440,1.69772
4868.44470,1.69800
4867.41499,1.69806
4866.38529,1.69755
4865.35558,1.69664
4864.32588,1.69608
4863.29617,1.69599
4862.26647,1.69580
4861.23676,1.69544
4860.20706,1.69540
4859.17735,1.69569
4858.14765,1.69603
4857.11794,1.69637
4856.08824,1.69672
4855.05853,1.69722
4854.02883,1.69779
4852.99912,1.69821
4851.96942,1.69857
4850.93971,1.69890
4849.91001,1.69897
4848.88030,1.69884
4847.85060,1.69887
4846.82089,1.69923
4845.79119,1.69969
4844.76148,1.70013
4843.73178,1.70056
4842.70207,1.70070
4841.67237,1.70040
4840.64266,1.69991
4839.61296,1.69947
4838.58325,1.69931
4837.55355,1.69962
4836.52385,1.70031
4835.49414,1.70113
4834.46444,1.70180
4833.43473,1.70228
4832.40503,1.70263
4831.37532,1.70297
4830.34562,1.70353
4829.31591,1.70423
4828.28621,1.70459
4827.25650,1.70441
4826.22680,1.70383
4825.19709,1.70323
4824.16739,1.70282
4823.13768,1.70265
4822.10798,1.70255
4821.07827,1.70242
4820.04857,1.70239
4819.01886,1.70227
4817.98916,1.70184
4816.95945,1.70132
4815.92975,1.70118
4814.90004,1.70143
4813.87034,1.70193
4812.84063,1.70241
4811.81093,1.70258
4810.78122,1.70262
4809.75152,1.70280
4808.72181,1.70309
4807.69211,1.70334
4806.66240,1.70355
4805.63270,1.70383
4804.60299,1.70426
4803.57329,1.70468
4802.54358,1.70497
4801.51388,1.70522
4800.48417,1.70545
4799.45447,1.70549
4798.42476,1.70522
4797.39506,1.70474
4796.36535,1.70445
4795.33565,1.70442
4794.30594,1.70425
4793.27624,1.70407
4792.24654,1.70427
4791.21683,1.70466
4790.18713,1.70483
4789.15742,1.70489
4788.12772,1.70500
4787.09801,1.70518
4786.06831,1.70544
4785.03860,1.70556
4784.00890,1.70556
4782.97919,1.70568
4781.94949,1.70588
4780.91978,1.70631
4779.89008,1.70709
4778.86037,1.70777
4777.83067,1.70790
4776.80096,1.70754
4775.77126,1.70705
4774.74155,1.70658
4773.71185,1.70608
4772.68214,1.70574
4771.65244,1.70575
4770.62273,1.70595
4769.59303,1.70615
4768.56332,1.70647
4767.53362,1.70676
4766.50391,1.70680
4765.47421,1.70687
4764.44450,1.70710
4763.41480,1.70719
4762.38509,1.70697
4761.35539,1.70631
4760.32568,1.70541
4759.29598,1.70493
4758.26627,1.70510
4757.23657,1.70549
4756.20686,1.70567
4755.17716,1.70545
4754.14745,1.70497
4753.11775,1.70474
4752.08804,1.70492
4751.05834,1.70519
4750.02863,1.70530
4748.99893,1.70533
4747.96923,1.70568
4746.93952,1.70650
4745.90982,1.70736
4744.88011,1.70792
4743.85041,1.70830
4742.82070,1.70854
4741.79100,1.70862
4740.76129,1.70879
4739.73159,1.70898
4738.70188,1.70873
4737.67218,1.70789
4736.64247,1.70700
4735.61277,1.70680
4734.58306,1.70739
4733.55336,1.70821
4732.52365,1.70862
4731.49395,1.70852
4730.46424,1.70828
4729.43454,1.70834
4728.40483,1.70871
4727.37513,1.70889
4726.34542,1.70874
4725.31572,1.70868
4724.28601,1.70902
4723.25631,1.70974
4722.22660,1.71046
4721.19690,1.71063
4720.16719,1.71017
4719.13749,1.70950
4718.10778,1.70898
4717.07808,1.70871
4716.04837,1.70867
4715.01867,1.70862
4713.98896,1.70850
4712.95926,1.70854
4711.92955,1.70894
4710.89985,1.70952
4709.87014,1.70990
4708.84044,1.71000
4707.81073,1.70987
4706.78103,1.70954
4705.75132,1.70914
4704.72162,1.70886
4703.69191,1.70875
4702.66221,1.70871
4701.63251,1.70875
4700.60280,1.70893
4699.57310,1.70895
4698.54339,1.70871
4697.51369,1.70827
4696.48398,1.70760
4695.45428,1.70685
4694.42457,1.70651
4693.39487,1.70678
4692.36516,1.70734
4691.33546,1.70784
4690.30575,1.70838
4689.27605,1.70908
4688.24634,1.70978
4687.21664,1.71031
4686.18693,1.71067
4685.15723,1.71088
4684.12752,1.71092
4683.09782,1.71077
4682.06811,1.71058
4681.03841,1.71048
4680.00870,1.71046
4678.97900,1.71044
4677.94929,1.71030
4676.91959,1.70998
4675.88988,1.70945
4674.86018,1.70878
4673.83047,1.70820
4672.80077,1.70774
4671.77106,1.70739
4670.74136,1.70724
4669.71165,1.70718
4668.68195,1.70715
4667.65224,1.70726
4666.62254,1.70761
4665.59283,1.70810
4664.56313,1.70868
4663.53342,1.70930
4662.50372,1.70972
4661.47401,1.70990
4660.44431,1.71003
4659.41460,1.71015
4658.38490,1.71032
4657.35520,1.71052
4656.32549,1.71062
4655.29579,1.71062
4654.26608,1.71056
4653.23638,1.71041
4652.20667,1.71018
4651.17697,1.70996
4650.14726,1.70993
4649.11756,1.70997
4648.08785,1.70990
4647.05815,1.70978
4646.02844,1.70952
4644.99874,1.70910
4643.96903,1.70886
4642.93933,1.70900
4641.90962,1.70921
4640.87992,1.70907
4639.85021,1.70865
4638.82051,1.70824
4637.79080,1.70793
4636.76110,1.70775
4635.73139,1.70763
4634.70169,1.70745
4633.67198,1.70730
4632.64228,1.70718
4631.61257,1.70704
4630.58287,1.70688
4629.55316,1.70671
4628.52346,1.70647
4627.49375,1.70629
4626.46405,1.70642
4625.43434,1.70678
4624.40464,1.70706
4623.37493,1.70712
4622.34523,1.70699
4621.31552,1.70673
4620.28582,1.70652
4619.25611,1.70646
4618.22641,1.70645
4617.19670,1.70630
4616.16700,1.70586
4615.13729,1.70537
4614.10759,1.70522
4613.07789,1.70536
4612.04818,1.70544
4611.01848,1.70539
4609.98877,1.70536
4608.95907,1.70542
4607.92936,1.70546
4606.89966,1.70547
4605.86995,1.70553
4604.84025,1.70556
4603.81054,1.70560
4602.78084,1.70592
4601.75113,1.70650
4600.72143,1.70703
4599.69172,1.70725
4598.66202,1.70718
4597.63231,1.70716
4596.60261,1.70734
4595.57290,1.70750
4594.54320,1.70750
4593.51349,1.70753
4592.48379,1.70750
4591.45408,1.70725
4590.42438,1.70702
4589.39467,1.70703
4588.36497,1.70713
4587.33526,1.70700
4586.30556,1.70671
4585.27585,1.70639
4584.24615,1.70602
4583.21644,1.70560
4582.18674,1.70521
4581.15703,1.70490
4580.12733,1.70454
4579.09762,1.70412
4578.06792,1.70379
4577.03821,1.70353
4576.00851,1.70335
4574.97880,1.70329
4573.94910,1.70332
4572.91939,1.70341
4571.88969,1.70345
4570.85998,1.70338
4569.83028,1.70333
4568.80058,1.70342
4567.77087,1.70361
4566.74117,1.70396
4565.71146,1.70453
4564.68176,1.70519
4563.65205,1.70572
4562.62235,1.70584
4561.59264,1.70545
4560.56294,1.70478
4559.53323,1.70411
4558.50353,1.70370
4557.47382,1.70356
4556.44412,1.70356
4555.41441,1.70347
4554.38471,1.70332
4553.35500,1.70330
4552.32530,1.70344
4551.29559,1.70366
4550.26589,1.70395
4549.23618,1.70434
4548.20648,1.70469
4547.17677,1.70494
4546.14707,1.70515
4545.11736,1.70539
4544.08766,1.70574
4543.05795,1.70629
4542.02825,1.70685
4540.99854,1.70714
4539.96884,1.70711
4538.93913,1.70685
4537.90943,1.70631
4536.87972,1.70566
4535.85002,1.70526
4534.82031,1.70517
4533.79061,1.70522
4532.76090,1.70525
4531.73120,1.70521
4530.70149,1.70505
4529.67179,1.70488
4528.64208,1.70499
4527.61238,1.70531
4526.58267,1.70551
4525.55297,1.70560
4524.52326,1.70573
4523.49356,1.70588
4522.46386,1.70598
4521.43415,1.70612
4520.40445,1.70632
4519.37474,1.70648
4518.34504,1.70655
4517.31533,1.70652
4516.28563,1.70652
4515.25592,1.70672
4514.22622,1.70708
4513.19651,1.70746
4512.16681,1.70799
4511.13710,1.70870
4510.10740,1.70929
4509.07769,1.70965
4508.04799,1.70986
4507.01828,1.70993
4505.98858,1.70991
4504.95887,1.70994
4503.92917,1.70989
4502.89946,1.70951
4501.86976,1.70898
4500.84005,1.70873
4499.81035,1.70888
4498.78064,1.70917
4497.75094,1.70930
4496.72123,1.70914
4495.69153,1.70874
4494.66182,1.70837
4493.63212,1.70826
4492.60241,1.70836
4491.57271,1.70858
4490.54300,1.70887
4489.51330,1.70925
4488.48359,1.70979
4487.45389,1.71055
4486.42418,1.71131
4485.39448,1.71178
4484.36477,1.71200
4483.33507,1.71218
4482.30536,1.71237
4481.27566,1.71257
4480.24595,1.71275
4479.21625,1.71282
4478.18655,1.71285
4477.15684,1.71312
4476.12714,1.71369
4475.09743,1.71431
4474.06773,1.71474
4473.03802,1.71499
4472.00832,1.71516
4470.97861,1.71535
4469.94891,1.71567
4468.91920,1.71608
4467.88950,1.71648
4466.85979,1.71690
4465.83009,1.71745
4464.80038,1.71813
4463.77068,1.71890
4462.74097,1.71959
4461.71127,1.72007
4460.68156,1.72039
4459.65186,1.72057
4458.62215,1.72068
4457.59245,1.72087
4456.56274,1.72133
4455.53304,1.72198
4454.50333,1.72265
4453.47363,1.72338
4452.44392,1.72429
4451.41422,1.72539
4450.38451,1.72648
4449.35481,1.72748
4448.32510,1.72854
4447.29540,1.72970
4446.26569,1.73086
4445.23599,1.73204
4444.20628,1.73335
4443.17658,1.73482
4442.14687,1.73640
4441.11717,1.73794
4440.08746,1.73938
4439.05776,1.74066
4438.02805,1.74172
4436.99835,1.74263
4435.96864,1.74335
4434.93894,1.74376
4433.90924,1.74420
4432.87953,1.74514
4431.84983,1.74639
4430.82012,1.74748
4429.79042,1.74843
4428.76071,1.74956
4427.73101,1.75090
4426.70130,1.75215
4425.67160,1.75316
4424.64189,1.75409
4423.61219,1.75514
4422.58248,1.75628
4421.55278,1.75745
4420.52307,1.75868
4419.49337,1.76012
4418.46366,1.76171
4417.43396,1.76320
4416.40425,1.76444
4415.37455,1.76564
4414.34484,1.76692
4413.31514,1.76810
4412.28543,1.76906
4411.25573,1.76980
4410.22602,1.77037
4409.19632,1.77105
4408.16661,1.77197
4407.13691,1.77279
4406.10720,1.77337
4405.07750,1.77408
4404.04779,1.77502
4403.01809,1.77589
4401.98838,1.77662
4400.95868,1.77736
4399.92897,1.77825
4398.89927,1.77934
4397.86956,1.78055
4396.83986,1.78167
4395.81015,1.78279
4394.78045,1.78408
4393.75074,1.78538
4392.72104,1.78650
4391.69133,1.78755
4390.66163,1.78872
4389.63193,1.78990
4388.60222,1.79093
4387.57252,1.79192
4386.54281,1.79294
4385.51311,1.79391
4384.48340,1.79481
4383.45370,1.79563
4382.42399,1.79632
4381.39429,1.79686
4380.36458,1.79742
4379.33488,1.79803
4378.30517,1.79862
4377.27547,1.79918
4376.24576,1.79971
4375.21606,1.80022
4374.18635,1.80077
4373.15665,1.80145
4372.12694,1.80224
4371.09724,1.80304
4370.06753,1.80375
4369.03783,1.80444
4368.00812,1.80530
4366.97842,1.80636
4365.94871,1.80755
4364.91901,1.80892
4363.88930,1.81048
4362.85960,1.81210
4361.82989,1.81362
4360.80019,1.81486
4359.77048,1.81584
4358.74078,1.81694
4357.71107,1.81836
4356.68137,1.81969
4355.65166,1.82081
4354.62196,1.82193
4353.59225,1.82304
4352.56255,1.82416
4351.53284,1.82533
4350.50314,1.82648
4349.47343,1.82766
4348.44373,1.82896
4347.41402,1.83021
4346.38432,1.83117
4345.35461,1.83200
4344.32491,1.83308
4343.29521,1.83431
4342.26550,1.83538
4341.23580,1.83630
4340.20609,1.83710
4339.17639,1.83767
4338.14668,1.83803
4337.11698,1.83828
4336.08727,1.83837
4335.05757,1.83844
4334.02786,1.83882
4332.99816,1.83952
4331.96845,1.84021
4330.93875,1.84074
4329.90904,1.84123
4328.87934,1.84167
4327.84963,1.84196
4326.81993,1.84200
4325.79022,1.84173
4324.76052,1.84122
4323.73081,1.84064
4322.70111,1.83998
4321.67140,1.83901
4320.64170,1.83769
4319.61199,1.83626
4318.58229,1.83482
4317.55258,1.83323
4316.52288,1.83138
4315.49317,1.82944
4314.46347,1.82759
4313.43376,1.82592
4312.40406,1.82440
4311.37435,1.82298
4310.34465,1.82177
4309.31494,1.82093
4308.28524,1.82041
4307.25553,1.82000
4306.22583,1.81954
4305.19612,1.81909
4304.16642,1.81865
4303.13671,1.81797
4302.10701,1.81708
4301.07730,1.81639
4300.04760,1.81612
4299.01790,1.81614
4297.98819,1.81621
4296.95849,1.81611
4295.92878,1.81594
4294.89908,1.81585
4293.86937,1.81574
4292.83967,1.81546
4291.80996,1.81511
4290.78026,1.81500
4289.75055,1.81517
4288.72085,1.81545
4287.69114,1.81585
4286.66144,1.81631
4285.63173,1.81669
4284.60203,1.81706
4283.57232,1.81767
4282.54262,1.81848
4281.51291,1.81919
4280.48321,1.81983
4279.45350,1.82055
4278.42380,1.82121
4277.39409,1.82192
4276.36439,1.82299
4275.33468,1.82416
4274.30498,1.82509
4273.27527,1.82582
4272.24557,1.82652
4271.21586,1.82714
4270.18616,1.82752
4269.15645,1.82767
4268.12675,1.82775
4267.09704,1.82793
4266.06734,1.82834
4265.03763,1.82897
4264.00793,1.82967
4262.97822,1.83037
4261.94852,1.83100
4260.91881,1.83151
4259.88911,1.83211
4258.85940,1.83283
4257.82970,1.83343
4256.79999,1.83383
4255.77029,1.83415
4254.74059,1.83426
4253.71088,1.83387
4252.68118,1.83310
4251.65147,1.83227
4250.62177,1.83141
4249.59206,1.83041
4248.56236,1.82937
4247.53265,1.82826
4246.50295,1.82695
4245.47324,1.82539
4244.44354,1.82373
4243.41383,1.82214
4242.38413,1.82068
4241.35442,1.81937
4240.32472,1.81820
4239.29501,1.81713
4238.26531,1.81616
4237.23560,1.81535
4236.20590,1.81477
4235.17619,1.81447
4234.14649,1.81431
4233.11678,1.81420
4232.08708,1.81418
4231.05737,1.81426
4230.02767,1.81435
4228.99796,1.81438
4227.96826,1.81444
4226.93855,1.81469
4225.90885,1.81506
4224.87914,1.81546
4223.84944,1.81592
4222.81973,1.81643
4221.79003,1.81684
4220.76032,1.81701
4219.73062,1.81699
4218.70091,1.81706
4217.67121,1.81729
4216.64150,1.81760
4215.61180,1.81796
4214.58209,1.81822
4213.55239,1.81833
4212.52268,1.81848
4211.49298,1.81873
4210.46328,1.81899
4209.43357,1.81916
4208.40387,1.81928
4207.37416,1.81944
4206.34446,1.81959
4205.31475,1.81962
4204.28505,1.81948
4203.25534,1.81937
4202.22564,1.81939
4201.19593,1.81950
4200.16623,1.81963
4199.13652,1.81961
4198.10682,1.81937
4197.07711,1.81893
4196.04741,1.81840
4195.01770,1.81811
4193.98800,1.81820
4192.95829,1.81844
4191.92859,1.81863
4190.89888,1.81878
4189.86918,1.81895
4188.83947,1.81922
4187.80977,1.81954
4186.78006,1.81982
4185.75036,1.81999
4184.72065,1.82008
4183.69095,1.82007
4182.66124,1.82003
4181.63154,1.82004
4180.60183,1.81998
4179.57213,1.81988
4178.54242,1.81987
4177.51272,1.81987
4176.48301,1.81970
4175.45331,1.81930
4174.42360,1.81865
4173.39390,1.81794
4172.36419,1.81734
4171.33449,1.81689
4170.30478,1.81667
4169.27508,1.81655
4168.24537,1.81645
4167.21567,1.81647
4166.18596,1.81659
4165.15626,1.81668
4164.12656,1.81671
4163.09685,1.81663
4162.06715,1.81648
4161.03744,1.81633
4160.00774,1.81601
4158.97803,1.81540
4157.94833,1.81482
4156.91862,1.81448
4155.88892,1.81425
4154.85921,1.81423
4153.82951,1.81441
4152.79980,1.81446
4151.77010,1.81420
4150.74039,1.81378
4149.71069,1.81341
4148.68098,1.81330
4147.65128,1.81352
4146.62157,1.81388
4145.59187,1.81425
4144.56216,1.81468
4143.53246,1.81519
4142.50275,1.81575
4141.47305,1.81630
4140.44334,1.81679
4139.41364,1.81726
4138.38393,1.81773
4137.35423,1.81810
4136.32452,1.81821
4135.29482,1.81796
4134.26511,1.81765
4133.23541,1.81771
4132.20570,1.81796
4131.17600,1.81804
4130.14629,1.81794
4129.11659,1.81777
4128.08688,1.81750
4127.05718,1.81714
4126.02747,1.81675
4124.99777,1.81646
4123.96806,1.81631
4122.93836,1.81614
4121.90865,1.81586
4120.87895,1.81569
4119.84925,1.81575
4118.81954,1.81585
4117.78984,1.81602
4116.76013,1.81632
4115.73043,1.81664
4114.70072,1.81693
4113.67102,1.81715
4112.64131,1.81721
4111.61161,1.81717
4110.58190,1.81726
4109.55220,1.81755
4108.52249,1.81784
4107.49279,1.81799
4106.46308,1.81809
4105.43338,1.81836
4104.40367,1.81878
4103.37397,1.81897
4102.34426,1.81874
4101.31456,1.81837
4100.28485,1.81813
4099.25515,1.81802
4098.22544,1.81800
4097.19574,1.81807
4096.16603,1.81833
4095.13633,1.81867
4094.10662,1.81894
4093.07692,1.81915
4092.04721,1.81936
4091.01751,1.81953
4089.98780,1.81956
4088.95810,1.81950
4087.92839,1.81952
4086.89869,1.81965
4085.86898,1.81980
4084.83928,1.81991
4083.80957,1.82001
4082.77987,1.82019
4081.75016,1.82045
4080.72046,1.82059
4079.69075,1.82044
4078.66105,1.82013
4077.63134,1.81992
4076.60164,1.81997
4075.57194,1.82012
4074.54223,1.82029
4073.51253,1.82050
4072.48282,1.82071
4071.45312,1.82090
4070.42341,1.82117
4069.39371,1.82157
4068.36400,1.82204
4067.33430,1.82250
4066.30459,1.82292
4065.27489,1.82330
4064.24518,1.82372
4063.21548,1.82422
4062.18577,1.82474
4061.15607,1.82533
4060.12636,1.82600
4059.09666,1.82660
4058.06695,1.82715
4057.03725,1.82761
4056.00754,1.82782
4054.97784,1.82792
4053.94813,1.82802
4052.91843,1.82797
4051.88872,1.82777
4050.85902,1.82761
4049.82931,1.82752
4048.79961,1.82747
4047.76990,1.82745
4046.74020,1.82751
4045.71049,1.82776
4044.68079,1.82803
4043.65108,1.82816
4042.62138,1.82836
4041.59167,1.82878
4040.56197,1.82931
4039.53226,1.82993
4038.50256,1.83059
4037.47285,1.83119
4036.44315,1.83175
4035.41344,1.83223
4034.38374,1.83263
4033.35403,1.83301
4032.32433,1.83327
4031.29463,1.83335
4030.26492,1.83337
4029.23522,1.83328
4028.20551,1.83310
4027.17581,1.83309
4026.14610,1.83326
4025.11640,1.83334
4024.08669,1.83324
4023.05699,1.83306
4022.02728,1.83292
4020.99758,1.83281
4019.96787,1.83265
4018.93817,1.83259
4017.90846,1.83285
4016.87876,1.83318
4015.84905,1.83322
4014.81935,1.83310
4013.78964,1.83290
4012.75994,1.83259
4011.73023,1.83228
4010.70053,1.83206
4009.67082,1.83183
4008.64112,1.83165
4007.61141,1.83158
4006.58171,1.83151
4005.55200,1.83140
4004.52230,1.83137
4003.49259,1.83143
4002.46289,1.83137
4001.43318,1.83112
4000.40348,1.83073
3999.37377,1.83031
3998.34407,1.83002
3997.31436,1.82996
3996.28466,1.83000
3995.25495,1.83010
3994.22525,1.83041
3993.19554,1.83087
3992.16584,1.83120
3991.13613,1.83130
3990.10643,1.83132
3989.07672,1.83142
3988.04702,1.83154
3987.01731,1.83164
3985.98761,1.83180
3984.95791,1.83200
3983.92820,1.83217
3982.89850,1.83232
3981.86879,1.83242
3980.83909,1.83248
3979.80938,1.83245
3978.77968,1.83226
3977.74997,1.83192
3976.72027,1.83163
3975.69056,1.83149
3974.66086,1.83137
3973.63115,1.83121
3972.60145,1.83112
3971.57174,1.83105
3970.54204,1.83094
3969.51233,1.83081
3968.48263,1.83056
3967.45292,1.83015
3966.42322,1.82983
3965.39351,1.82967
3964.36381,1.82959
3963.33410,1.82956
3962.30440,1.82969
3961.27469,1.82997
3960.24499,1.83014
3959.21528,1.83012
3958.18558,1.83019
3957.15587,1.83048
3956.12617,1.83086
3955.09646,1.83125
3954.06676,1.83162
3953.03705,1.83188
3952.00735,1.83202
3950.97764,1.83217
3949.94794,1.83232
3948.91823,1.83232
3947.88853,1.83227
3946.85882,1.83220
3945.82912,1.83202
3944.79941,1.83173
3943.76971,1.83154
3942.74000,1.83161
3941.71030,1.83181
3940.68060,1.83191
3939.65089,1.83190
3938.62119,1.83191
3937.59148,1.83187
3936.56178,1.83162
3935.53207,1.83102
3934.50237,1.83028
3933.47266,1.82970
3932.44296,1.82928
3931.41325,1.82882
3930.38355,1.82823
3929.35384,1.82758
3928.32414,1.82700
3927.29443,1.82661
3926.26473,1.82643
3925.23502,1.82619
3924.20532,1.82569
3923.17561,1.82514
3922.14591,1.82474
3921.11620,1.82449
3920.08650,1.82439
3919.05679,1.82451
3918.02709,1.82467
3916.99738,1.82466
3915.96768,1.82451
3914.93797,1.82430
3913.90827,1.82398
3912.87856,1.82361
3911.84886,1.82310
3910.81915,1.82236
3909.78945,1.82157
3908.75974,1.82090
3907.73004,1.82039
3906.70033,1.82010
3905.67063,1.82005
3904.64092,1.82010
3903.61122,1.82005
3902.58151,1.81980
3901.55181,1.81936
3900.52210,1.81880
3899.49240,1.81835
3898.46269,1.81821
3897.43299,1.81820
3896.40329,1.81809
3895.37358,1.81797
3894.34388,1.81795
3893.31417,1.81786
3892.28447,1.81769
3891.25476,1.81760
3890.22506,1.81752
3889.19535,1.81736
3888.16565,1.81715
3887.13594,1.81695
3886.10624,1.81670
3885.07653,1.81636
3884.04683,1.81609
3883.01712,1.81614
3881.98742,1.81662
3880.95771,1.81717
3879.92801,1.81744
3878.89830,1.81745
3877.86860,1.81744
3876.83889,1.81775
3875.80919,1.81839
3874.77948,1.81917
3873.74978,1.81979
3872.72007,1.82001
3871.69037,1.82000
3870.66066,1.82000
3869.63096,1.81997
3868.60125,1.81988
3867.57155,1.81991
3866.54184,1.82011
3865.51214,1.82012
3864.48243,1.81976
3863.45273,1.81918
3862.42302,1.81845
3861.39332,1.81752
3860.36361,1.81665
3859.33391,1.81609
3858.30420,1.81575
3857.27450,1.81561
3856.24479,1.81551
3855.21509,1.81536
3854.18538,1.81518
3853.15568,1.81505
3852.12598,1.81521
3851.09627,1.81555
3850.06657,1.81579
3849.03686,1.81579
3848.00716,1.81580
3846.97745,1.81605
3845.94775,1.81634
3844.91804,1.81655
3843.88834,1.81675
3842.85863,1.81700
3841.82893,1.81713
3840.79922,1.81696
3839.76952,1.81664
3838.73981,1.81646
3837.71011,1.81646
3836.68040,1.81657
3835.65070,1.81670
3834.62099,1.81665
3833.59129,1.81662
3832.56158,1.81698
3831.53188,1.81755
3830.50217,1.81796
3829.47247,1.81828
3828.44276,1.81890
3827.41306,1.81979
3826.38335,1.82057
3825.35365,1.82106
3824.32394,1.82144
3823.29424,1.82196
3822.26453,1.82244
3821.23483,1.82261
3820.20512,1.82255
3819.17542,1.82251
3818.14571,1.82254
3817.11601,1.82245
3816.08630,1.82236
3815.05660,1.82240
3814.02689,1.82240
3812.99719,1.82228
3811.96748,1.82196
3810.93778,1.82145
3809.90807,1.82104
3808.87837,1.82103
3807.84866,1.82133
3806.81896,1.82159
3805.78926,1.82183
3804.75955,1.82219
3803.72985,1.82261
3802.70014,1.82269
3801.67044,1.82252
3800.64073,1.82251
3799.61103,1.82270
3798.58132,1.82297
3797.55162,1.82323
3796.52191,1.82344
3795.49221,1.82369
3794.46250,1.82407
3793.43280,1.82445
3792.40309,1.82470
3791.37339,1.82479
3790.34368,1.82464
3789.31398,1.82435
3788.28427,1.82409
3787.25457,1.82388
3786.22486,1.82367
3785.19516,1.82361
3784.16545,1.82380
3783.13575,1.82415
3782.10604,1.82448
3781.07634,1.82470
3780.04663,1.82478
3779.01693,1.82471
3777.98722,1.82467
3776.95752,1.82495
3775.92781,1.82550
3774.89811,1.82607
3773.86840,1.82670
3772.83870,1.82748
3771.80899,1.82830
3770.77929,1.82904
3769.74958,1.82966
3768.71988,1.83010
3767.69017,1.83035
3766.66047,1.83041
3765.63076,1.83032
3764.60106,1.83029
3763.57135,1.83042
3762.54165,1.83049
3761.51195,1.83051
3760.48224,1.83068
3759.45254,1.83099
3758.42283,1.83138
3757.39313,1.83186
3756.36342,1.83233
3755.33372,1.83270
3754.30401,1.83314
3753.27431,1.83368
3752.24460,1.83417
3751.21490,1.83450
3750.18519,1.83487
3749.15549,1.83549
3748.12578,1.83646
3747.09608,1.83757
3746.06637,1.83846
3745.03667,1.83913
3744.00696,1.83976
3742.97726,1.84048
3741.94755,1.84122
3740.91785,1.84197
3739.88814,1.84281
3738.85844,1.84374
3737.82873,1.84455
3736.79903,1.84524
3735.76932,1.84589
3734.73962,1.84649
3733.70991,1.84715
3732.68021,1.84785
3731.65050,1.84834
3730.62080,1.84858
3729.59109,1.84881
3728.56139,1.84904
3727.53168,1.84938
3726.50198,1.84993
3725.47227,1.85069
3724.44257,1.85172
3723.41286,1.85316
3722.38316,1.85454
3721.35345,1.85544
3720.32375,1.85614
3719.29404,1.85697
3718.26434,1.85807
3717.23464,1.85929
3716.20493,1.86055
3715.17523,1.86180
3714.14552,1.86302
3713.11582,1.86412
3712.08611,1.86501
3711.05641,1.86588
3710.02670,1.86688
3708.99700,1.86802
3707.96729,1.86932
3706.93759,1.87076
3705.90788,1.87230
3704.87818,1.87401
3703.84847,1.87585
3702.81877,1.87778
3701.78906,1.87982
3700.75936,1.88199
3699.72965,1.88446
3698.69995,1.88707
3697.67024,1.88943
3696.64054,1.89157
3695.61083,1.89371
3694.58113,1.89598
3693.55142,1.89843
3692.52172,1.90106
3691.49201,1.90375
3690.46231,1.90637
3689.43260,1.90895
3688.40290,1.91159
3687.37319,1.91442
3686.34349,1.91730
3685.31378,1.92004
3684.28408,1.92258
3683.25437,1.92502
3682.22467,1.92740
3681.19496,1.92985
3680.16526,1.93258
3679.13555,1.93557
3678.10585,1.93860
3677.07614,1.94161
3676.04644,1.94457
3675.01673,1.94749
3673.98703,1.95024
3672.95733,1.95299
3671.92762,1.95596
3670.89792,1.95915
3669.86821,1.96244
3668.83851,1.96571
3667.80880,1.96878
3666.77910,1.97170
3665.74939,1.97450
3664.71969,1.97709
3663.68998,1.97944
3662.66028,1.98186
3661.63057,1.98451
3660.60087,1.98738
3659.57116,1.99058
3658.54146,1.99413
3657.51175,1.99795
3656.48205,2.00194
3655.45234,2.00599
3654.42264,2.00986
3653.39293,2.01336
3652.36323,2.01658
3651.33352,2.01973
3650.30382,2.02282
3649.27411,2.02583
3648.24441,2.02883
3647.21470,2.03170
3646.18500,2.03421
3645.15529,2.03644
3644.12559,2.03842
3643.09588,2.04025
3642.06618,2.04198
3641.03647,2.04298
3640.00677,2.04358
3638.97706,2.04485
3637.94736,2.04730
3636.91765,2.05042
3635.88795,2.05354
3634.85824,2.05658
3633.82854,2.05959
3632.79883,2.06255
3631.76913,2.06547
3630.73942,2.06834
3629.70972,2.07105
3628.68001,2.07346
3627.65031,2.07549
3626.62061,2.07716
3625.59090,2.07839
3624.56120,2.07945
3623.53149,2.08087
3622.50179,2.08256
3621.47208,2.08416
3620.44238,2.08550
3619.41267,2.08665
3618.38297,2.08770
3617.35326,2.08856
3616.32356,2.08923
3615.29385,2.09040
3614.26415,2.09228
3613.23444,2.09429
3612.20474,2.09621
3611.17503,2.09809
3610.14533,2.10004
3609.11562,2.10193
3608.08592,2.10358
3607.05621,2.10516
3606.02651,2.10666
3604.99680,2.10789
3603.96710,2.10877
3602.93739,2.10938
3601.90769,2.10981
3600.87798,2.11033
3599.84828,2.11131
3598.81857,2.11240
3597.78887,2.11289
3596.75916,2.11270
3595.72946,2.11228
3594.69975,2.11207
3593.67005,2.11213
3592.64034,2.11235
3591.61064,2.11264
3590.58093,2.11300
3589.55123,2.11358
3588.52152,2.11451
3587.49182,2.11572
3586.46211,2.11683
3585.43241,2.11782
3584.40270,2.11886
3583.37300,2.12003
3582.34330,2.12124
3581.31359,2.12217
3580.28389,2.12300
3579.25418,2.12404
3578.22448,2.12512
3577.19477,2.12595
3576.16507,2.12649
3575.13536,2.12681
3574.10566,2.12689
3573.07595,2.12691
3572.04625,2.12718
3571.01654,2.12763
3569.98684,2.12798
3568.95713,2.12825
3567.92743,2.12861
3566.89772,2.12896
3565.86802,2.12917
3564.83831,2.12941
3563.80861,2.12975
3562.77890,2.12982
3561.74920,2.12953
3560.71949,2.12935
3559.68979,2.12944
3558.66008,2.12949
3557.63038,2.12920
3556.60067,2.12886
3555.57097,2.12891
3554.54126,2.12908
3553.51156,2.12902
3552.48185,2.12886
3551.45215,2.12885
3550.42244,2.12915
3549.39274,2.12973
3548.36303,2.13045
3547.33333,2.13108
3546.30362,2.13138
3545.27392,2.13133
3544.24421,2.13119
3543.21451,2.13120
3542.18480,2.13130
3541.15510,2.13127
3540.12539,2.13107
3539.09569,2.13070
3538.06599,2.13019
3537.03628,2.12979
3536.00658,2.12965
3534.97687,2.12969
3533.94717,2.12964
3532.91746,2.12934
3531.88776,2.12900
3530.85805,2.12886
3529.82835,2.12896
3528.79864,2.12923
3527.76894,2.12964
3526.73923,2.13013
3525.70953,2.13073
3524.67982,2.13144
3523.65012,2.13196
3522.62041,2.13206
3521.59071,2.13191
3520.56100,2.13166
3519.53130,2.13128
3518.50159,2.13070
3517.47189,2.12992
3516.44218,2.12884
3515.41248,2.12758
3514.38277,2.12676
3513.35307,2.12662
3512.32336,2.12668
3511.29366,2.12663
3510.26395,2.12659
3509.23425,2.12648
3508.20454,2.12623
3507.17484,2.12614
3506.14513,2.12644
3505.11543,2.12687
3504.08572,2.12723
3503.05602,2.12792
3502.02631,2.12916
3500.99661,2.13047
3499.96690,2.13135
3498.93720,2.13191
3497.90749,2.13230
3496.87779,2.13235
3495.84808,2.13196
3494.81838,2.13138
3493.78868,2.13091
3492.75897,2.13071
3491.72927,2.13073
3490.69956,2.13081
3489.66986,2.13100
3488.64015,2.13115
3487.61045,2.13130
3486.58074,2.13154
3485.55104,2.13167
3484.52133,2.13147
3483.49163,2.13108
3482.46192,2.13078
3481.43222,2.13066
3480.40251,2.13074
3479.37281,2.13110
3478.34310,2.13153
3477.31340,2.13162
3476.28369,2.13114
3475.25399,2.13034
3474.22428,2.12959
3473.19458,2.12885
3472.16487,2.12822
3471.13517,2.12810
3470.10546,2.12839
3469.07576,2.12861
3468.04605,2.12861
3467.01635,2.12851
3465.98664,2.12825
3464.95694,2.12794
3463.92723,2.12781
3462.89753,2.12779
3461.86782,2.12754
3460.83812,2.12701
3459.80841,2.12654
3458.77871,2.12621
3457.74900,2.12591
3456.71930,2.12578
3455.68959,2.12590
3454.65989,2.12590
3453.63018,2.12551
3452.60048,2.12513
3451.57077,2.12503
3450.54107,2.12513
3449.51136,2.12539
3448.48166,2.12578
3447.45196,2.12620
3446.42225,2.12648
3445.39255,2.12654
3444.36284,2.12651
3443.33314,2.12657
3442.30343,2.12659
3441.27373,2.12640
3440.24402,2.12617
3439.21432,2.12588
3438.18461,2.12546
3437.15491,2.12509
3436.12520,2.12484
3435.09550,2.12456
3434.06579,2.12413
3433.03609,2.12369
3432.00638,2.12340
3430.97668,2.12324
3429.94697,2.12309
3428.91727,2.12295
3427.88756,2.12291
3426.85786,2.12288
3425.82815,2.12277
3424.79845,2.12267
3423.76874,2.12249
3422.73904,2.12216
3421.70933,2.12181
3420.67963,2.12154
3419.64992,2.12129
3418.62022,2.12094
3417.59051,2.12047
3416.56081,2.11999
3415.53110,2.11948
3414.50140,2.11885
3413.47169,2.11819
3412.44199,2.11754
3411.41228,2.11681
3410.38258,2.11586
3409.35287,2.11479
3408.32317,2.11378
3407.29346,2.11279
3406.26376,2.11196
3405.23405,2.11132
3404.20435,2.11067
3403.17465,2.10989
3402.14494,2.10904
3401.11524,2.10819
3400.08553,2.10741
3399.05583,2.10670
3398.02612,2.10603
3396.99642,2.10533
3395.96671,2.10448
3394.93701,2.10361
3393.90730,2.10280
3392.87760,2.10203
3391.84789,2.10125
3390.81819,2.10044
3389.78848,2.09959
3388.75878,2.09863
3387.72907,2.09757
3386.69937,2.09645
3385.66966,2.09530
3384.63996,2.09423
3383.61025,2.09310
3382.58055,2.09188
3381.55084,2.09079
3380.52114,2.08979
3379.49143,2.08877
3378.46173,2.08781
3377.43202,2.08692
3376.40232,2.08610
3375.37261,2.08561
3374.34291,2.08548
3373.31320,2.08534
3372.28350,2.08498
3371.25379,2.08452
3370.22409,2.08421
3369.19438,2.08410
3368.16468,2.08397
3367.13497,2.08361
3366.10527,2.08299
3365.07556,2.08220
3364.04586,2.08145
3363.01615,2.08094
3361.98645,2.08059
3360.95674,2.08018
3359.92704,2.07953
3358.89734,2.07871
3357.86763,2.07810
3356.83793,2.07766
3355.80822,2.07724
3354.77852,2.07701
3353.74881,2.07693
3352.71911,2.07679
3351.68940,2.07670
3350.65970,2.07679
3349.62999,2.07697
3348.60029,2.07721
3347.57058,2.07726
3346.54088,2.07704
3345.51117,2.07682
3344.48147,2.07656
3343.45176,2.07590
3342.42206,2.07498
3341.39235,2.07420
3340.36265,2.07363
3339.33294,2.07324
3338.30324,2.07308
3337.27353,2.07295
3336.24383,2.07268
3335.21412,2.07236
3334.18442,2.07230
3333.15471,2.07247
3332.12501,2.07239
3331.09530,2.07206
3330.06560,2.07182
3329.03589,2.07173
3328.00619,2.07167
3326.97648,2.07157
3325.94678,2.07144
3324.91707,2.07128
3323.88737,2.07108
3322.85766,2.07068
3321.82796,2.07018
3320.79825,2.06976
3319.76855,2.06929
3318.73884,2.06881
3317.70914,2.06867
3316.67943,2.06880
3315.64973,2.06882
3314.62003,2.06874
3313.59032,2.06877
3312.56062,2.06894
3311.53091,2.06921
3310.50121,2.06959
3309.47150,2.06990
3308.44180,2.06997
3307.41209,2.06986
3306.38239,2.06976
3305.35268,2.06976
3304.32298,2.06978
3303.29327,2.06979
3302.26357,2.06977
3301.23386,2.06971
3300.20416,2.06970
3299.17445,2.06972
3298.14475,2.06968
3297.11504,2.06959
3296.08534,2.06955
3295.05563,2.06957
3294.02593,2.06955
3292.99622,2.06955
3291.96652,2.06961
3290.93681,2.06956
3289.90711,2.06939
3288.87740,2.06920
3287.84770,2.06896
3286.81799,2.06868
3285.78829,2.06842
3284.75858,2.06804
3283.72888,2.06756
3282.69917,2.06718
3281.66947,2.06686
3280.63976,2.06665
3279.61006,2.06671
3278.58035,2.06687
3277.55065,2.06673
3276.52094,2.06629
3275.49124,2.06583
3274.46153,2.06547
3273.43183,2.06527
3272.40212,2.06538
3271.37242,2.06570
3270.34271,2.06599
3269.31301,2.06619
3268.28331,2.06641
3267.25360,2.06658
3266.22390,2.06658
3265.19419,2.06658
3264.16449,2.06671
3263.13478,2.06688
3262.10508,2.06707
3261.07537,2.06722
3260.04567,2.06729
3259.01596,2.06751
3257.98626,2.06787
3256.95655,2.06808
3255.92685,2.06815
3254.89714,2.06809
3253.86744,2.06781
3252.83773,2.06734
3251.80803,2.06679
3250.77832,2.06628
3249.74862,2.06585
3248.71891,2.06559
3247.68921,2.06553
3246.65950,2.06543
3245.62980,2.06516
3244.60009,2.06475
3243.57039,2.06431
3242.54068,2.06411
3241.51098,2.06418
3240.48127,2.06428
3239.45157,2.06427
3238.42186,2.06412
3237.39216,2.06395
3236.36245,2.06402
3235.33275,2.06450
3234.30304,2.06503
3233.27334,2.06508
3232.24363,2.06475
3231.21393,2.06442
3230.18422,2.06420
3229.15452,2.06403
3228.12481,2.06371
3227.09511,2.06319
3226.06540,2.06265
3225.03570,2.06233
3224.00600,2.06218
3222.97629,2.06205
3221.94659,2.06197
3220.91688,2.06199
3219.88718,2.06206
3218.85747,2.06210
3217.82777,2.06215
3216.79806,2.06216
3215.76836,2.06199
3214.73865,2.06171
3213.70895,2.06140
3212.67924,2.06124
3211.64954,2.06143
3210.61983,2.06171
3209.59013,2.06166
3208.56042,2.06134
3207.53072,2.06107
3206.50101,2.06098
3205.47131,2.06098
3204.44160,2.06087
3203.41190,2.06046
3202.38219,2.05995
3201.35249,2.05965
3200.32278,2.05949
3199.29308,2.05920
3198.26337,2.05891
3197.23367,2.05880
3196.20396,2.05873
3195.17426,2.05856
3194.14455,2.05828
3193.11485,2.05804
3192.08514,2.05797
3191.05544,2.05799
3190.02573,2.05793
3188.99603,2.05775
3187.96632,2.05764
3186.93662,2.05774
3185.90691,2.05798
3184.87721,2.05830
3183.84750,2.05863
3182.81780,2.05891
3181.78809,2.05917
3180.75839,2.05936
3179.72869,2.05947
3178.69898,2.05958
3177.66928,2.05977
3176.63957,2.05993
3175.60987,2.05988
3174.58016,2.05965
3173.55046,2.05945
3172.52075,2.05924
3171.49105,2.05898
3170.46134,2.05882
3169.43164,2.05871
3168.40193,2.05854
3167.37223,2.05842
3166.34252,2.05832
3165.31282,2.05801
3164.28311,2.05748
3163.25341,2.05705
3162.22370,2.05692
3161.19400,2.05693
3160.16429,2.05688
3159.13459,2.05665
3158.10488,2.05641
3157.07518,2.05637
3156.04547,2.05650
3155.01577,2.05664
3153.98606,2.05664
3152.95636,2.05659
3151.92665,2.05664
3150.89695,2.05675
3149.86724,2.05682
3148.83754,2.05684
3147.80783,2.05691
3146.77813,2.05706
3145.74842,2.05721
3144.71872,2.05727
3143.68901,2.05728
3142.65931,2.05725
3141.62960,2.05719
3140.59990,2.05706
3139.57019,2.05686
3138.54049,2.05667
3137.51078,2.05648
3136.48108,2.05621
3135.45138,2.05588
3134.42167,2.05558
3133.39197,2.05537
3132.36226,2.05527
3131.33256,2.05525
3130.30285,2.05520
3129.27315,2.05518
3128.24344,2.05530
3127.21374,2.05552
3126.18403,2.05569
3125.15433,2.05573
3124.12462,2.05569
3123.09492,2.05564
3122.06521,2.05566
3121.03551,2.05567
3120.00580,2.05571
3118.97610,2.05586
3117.94639,2.05601
3116.91669,2.05616
3115.88698,2.05635
3114.85728,2.05639
3113.82757,2.05621
3112.79787,2.05593
3111.76816,2.05571
3110.73846,2.05558
3109.70875,2.05550
3108.67905,2.05542
3107.64934,2.05534
3106.61964,2.05526
3105.58993,2.05514
3104.56023,2.05507
3103.53052,2.05511
3102.50082,2.05515
3101.47111,2.05502
3100.44141,2.05464
3099.41170,2.05415
3098.38200,2.05379
3097.35229,2.05360
3096.32259,2.05352
3095.29288,2.05356
3094.26318,2.05369
3093.23347,2.05378
3092.20377,2.05387
3091.17406,2.05406
3090.14436,2.05417
3089.11466,2.05411
3088.08495,2.05401
3087.05525,2.05394
3086.02554,2.05384
3084.99584,2.05369
3083.96613,2.05354
3082.93643,2.05345
3081.90672,2.05342
3080.87702,2.05344
3079.84731,2.05342
3078.81761,2.05337
3077.78790,2.05330
3076.75820,2.05322
3075.72849,2.05312
3074.69879,2.05304
3073.66908,2.05305
3072.63938,2.05317
3071.60967,2.05334
3070.57997,2.05345
3069.55026,2.05359
3068.52056,2.05385
3067.49085,2.05408
3066.46115,2.05416
3065.43144,2.05410
3064.40174,2.05404
3063.37203,2.05409
3062.34233,2.05420
3061.31262,2.05427
3060.28292,2.05423
3059.25321,2.05416
3058.22351,2.05411
3057.19380,2.05404
3056.16410,2.05397
3055.13439,2.05399
3054.10469,2.05407
3053.07498,2.05414
3052.04528,2.05418
3051.01557,2.05429
3049.98587,2.05455
3048.95616,2.05486
3047.92646,2.05507
3046.89675,2.05508
3045.86705,2.05499
3044.83735,2.05502
3043.80764,2.05507
3042.77794,2.05505
3041.74823,2.05512
3040.71853,2.05537
3039.68882,2.05565
3038.65912,2.05581
3037.62941,2.05579
3036.59971,2.05562
3035.57000,2.05545
3034.54030,2.05540
3033.51059,2.05552
3032.48089,2.05580
3031.45118,2.05614
3030.42148,2.05634
3029.39177,2.05643
3028.36207,2.05668
3027.33236,2.05719
3026.30266,2.05774
3025.27295,2.05809
3024.24325,2.05821
3023.21354,2.05818
3022.18384,2.05798
3021.15413,2.05779
3020.12443,2.05778
3019.09472,2.05785
3018.06502,2.05791
3017.03531,2.05800
3016.00561,2.05811
3014.97590,2.05809
3013.94620,2.05795
3012.91649,2.05792
3011.88679,2.05827
3010.85708,2.05890
3009.82738,2.05951
3008.79767,2.06007
3007.76797,2.06059
3006.73826,2.06096
3005.70856,2.06124
3004.67885,2.06160
3003.64915,2.06207
3002.61944,2.06251
3001.58974,2.06293
3000.56004,2.06347
2999.53033,2.06413
2998.50063,2.06474
2997.47092,2.06522
2996.44122,2.06566
2995.41151,2.06618
2994.38181,2.06665
2993.35210,2.06709
2992.32240,2.06774
2991.29269,2.06850
2990.26299,2.06915
2989.23328,2.06986
2988.20358,2.07087
2987.17387,2.07210
2986.14417,2.07323
2985.11446,2.07417
2984.08476,2.07504
2983.05505,2.07583
2982.02535,2.07655
2980.99564,2.07724
2979.96594,2.07789
2978.93623,2.07858
2977.90653,2.07939
2976.87682,2.08025
2975.84712,2.08106
2974.81741,2.08180
2973.78771,2.08242
2972.75800,2.08290
2971.72830,2.08333
2970.69859,2.08381
2969.66889,2.08441
2968.63918,2.08516
2967.60948,2.08591
2966.57977,2.08645
2965.55007,2.08678
2964.52036,2.08705
2963.49066,2.08731
2962.46095,2.08751
2961.43125,2.08758
2960.40154,2.08756
2959.37184,2.08743
2958.34213,2.08716
2957.31243,2.08692
2956.28273,2.08666
2955.25302,2.08628
2954.22332,2.08597
2953.19361,2.08583
2952.16391,2.08570
2951.13420,2.08562
2950.10450,2.08567
2949.07479,2.08586
2948.04509,2.08616
2947.01538,2.08663
2945.98568,2.08723
2944.95597,2.08787
2943.92627,2.08842
2942.89656,2.08877
2941.86686,2.08904
2940.83715,2.08924
2939.80745,2.08920
2938.77774,2.08894
2937.74804,2.08853
2936.71833,2.08797
2935.68863,2.08722
2934.65892,2.08623
2933.62922,2.08502
2932.59951,2.08363
2931.56981,2.08199
2930.54010,2.08007
2929.51040,2.07775
2928.48069,2.07446
2927.45099,2.06961
2926.42128,2.06306
2925.39158,2.05488
2924.36187,2.04522
2923.33217,2.03440
2922.30246,2.02285
2921.27276,2.01094
2920.24305,1.99898
2919.21335,1.98744
2918.18364,1.97674
2917.15394,1.96706
2916.12423,1.95852
2915.09453,1.95128
2914.06482,1.94561
2913.03512,1.94167
2912.00541,1.93946
2910.97571,1.93895
2909.94601,1.94012
2908.91630,1.94289
2907.88660,1.94706
2906.85689,1.95229
2905.82719,1.95803
2904.79748,1.96359
2903.76778,1.96849
2902.73807,1.97256
2901.70837,1.97580
2900.67866,1.97827
2899.64896,1.98020
2898.61925,1.98180
2897.58955,1.98318
2896.55984,1.98435
2895.53014,1.98542
2894.50043,1.98661
2893.47073,1.98792
2892.44102,1.98918
2891.41132,1.99032
2890.38161,1.99135
2889.35191,1.99232
2888.32220,1.99323
2887.29250,1.99410
2886.26279,1.99506
2885.23309,1.99619
2884.20338,1.99747
2883.17368,1.99883
2882.14397,2.00015
2881.11427,2.00135
2880.08456,2.00246
2879.05486,2.00360
2878.02515,2.00470
2876.99545,2.00567
2875.96574,2.00664
2874.93604,2.00773
2873.90633,2.00889
2872.87663,2.01006
2871.84692,2.01129
2870.81722,2.01257
2869.78751,2.01376
2868.75781,2.01479
2867.72810,2.01575
2866.69840,2.01672
2865.66870,2.01771
2864.63899,2.01875
2863.60929,2.01993
2862.57958,2.02139
2861.54988,2.02307
2860.52017,2.02457
2859.49047,2.02529
2858.46076,2.02474
2857.43106,2.02272
2856.40135,2.01927
2855.37165,2.01461
2854.34194,2.00894
2853.31224,2.00256
2852.28253,1.99579
2851.25283,1.98880
2850.22312,1.98179
2849.19342,1.97499
2848.16371,1.96857
2847.13401,1.96264
2846.10430,1.95727
2845.07460,1.95264
2844.04489,1.94915
2843.01519,1.94700
2841.98548,1.94610
2840.95578,1.94637
2839.92607,1.94784
2838.89637,1.95044
2837.86666,1.95394
2836.83696,1.95785
2835.80725,1.96159
2834.77755,1.96465
2833.74784,1.96692
2832.71814,1.96857
2831.68843,1.96988
2830.65873,1.97103
2829.62902,1.97204
2828.59932,1.97299
2827.56961,1.97381
2826.53991,1.97451
2825.51020,1.97519
2824.48050,1.97581
2823.45079,1.97624
2822.42109,1.97649
2821.39139,1.97673
2820.36168,1.97706
2819.33198,1.97744
2818.30227,1.97790
2817.27257,1.97843
2816.24286,1.97895
2815.21316,1.97945
2814.18345,1.97997
2813.15375,1.98046
2812.12404,1.98081
2811.09434,1.98097
2810.06463,1.98099
2809.03493,1.98093
2808.00522,1.98091
2806.97552,1.98101
2805.94581,1.98123
2804.91611,1.98141
2803.88640,1.98144
2802.85670,1.98137
2801.82699,1.98130
2800.79729,1.98130
2799.76758,1.98131
2798.73788,1.98123
2797.70817,1.98106
2796.67847,1.98093
2795.64876,1.98091
2794.61906,1.98101
2793.58935,1.98126
2792.55965,1.98155
2791.52994,1.98177
2790.50024,1.98194
2789.47053,1.98205
2788.44083,1.98209
2787.41112,1.98215
2786.38142,1.98229
2785.35171,1.98241
2784.32201,1.98240
2783.29230,1.98235
2782.26260,1.98237
2781.23289,1.98241
2780.20319,1.98236
2779.17348,1.98214
2778.14378,1.98191
2777.11408,1.98180
2776.08437,1.98168
2775.05467,1.98140
2774.02496,1.98098
2772.99526,1.98053
2771.96555,1.98023
2770.93585,1.98010
2769.90614,1.98000
2768.87644,1.97987
2767.84673,1.97976
2766.81703,1.97969
2765.78732,1.97964
2764.75762,1.97964
2763.72791,1.97979
2762.69821,1.98014
2761.66850,1.98054
2760.63880,1.98080
2759.60909,1.98089
2758.57939,1.98098
2757.54968,1.98114
2756.51998,1.98130
2755.49027,1.98137
2754.46057,1.98130
2753.43086,1.98120
2752.40116,1.98107
2751.37145,1.98087
2750.34175,1.98068
2749.31204,1.98061
2748.28234,1.98068
2747.25263,1.98082
2746.22293,1.98093
2745.19322,1.98099
2744.16352,1.98106
2743.13381,1.98115
2742.10411,1.98118
2741.07440,1.98113
2740.04470,1.98108
2739.01499,1.98117
2737.98529,1.98138
2736.95558,1.98155
2735.92588,1.98160
2734.89617,1.98166
2733.86647,1.98183
2732.83676,1.98197
2731.80706,1.98190
2730.77736,1.98171
2729.74765,1.98154
2728.71795,1.98139
2727.68824,1.98117
2726.65854,1.98084
2725.62883,1.98055
2724.59913,1.98042
2723.56942,1.98029
2722.53972,1.98009
2721.51001,1.97988
2720.48031,1.97970
2719.45060,1.97949
2718.42090,1.97926
2717.39119,1.97906
2716.36149,1.97894
2715.33178,1.97897
2714.30208,1.97912
2713.27237,1.97928
2712.24267,1.97938
2711.21296,1.97944
2710.18326,1.97947
2709.15355,1.97940
2708.12385,1.97921
2707.09414,1.97898
2706.06444,1.97881
2705.03473,1.97859
2704.00503,1.97822
2702.97532,1.97779
2701.94562,1.97741
2700.91591,1.97713
2699.88621,1.97691
2698.85650,1.97669
2697.82680,1.97648
2696.79709,1.97630
2695.76739,1.97616
2694.73768,1.97612
2693.70798,1.97618
2692.67827,1.97628
2691.64857,1.97640
2690.61886,1.97652
2689.58916,1.97656
2688.55945,1.97657
2687.52975,1.97658
2686.50005,1.97658
2685.47034,1.97663
2684.44064,1.97671
2683.41093,1.97673
2682.38123,1.97668
2681.35152,1.97662
2680.32182,1.97657
2679.29211,1.97650
2678.26241,1.97641
2677.23270,1.97620
2676.20300,1.97590
2675.17329,1.97561
2674.14359,1.97539
2673.11388,1.97520
2672.08418,1.97497
2671.05447,1.97475
2670.02477,1.97463
2668.99506,1.97455
2667.96536,1.97445
2666.93565,1.97437
2665.90595,1.97432
2664.87624,1.97422
2663.84654,1.97407
2662.81683,1.97394
2661.78713,1.97391
2660.75742,1.97395
2659.72772,1.97390
2658.69801,1.97376
2657.66831,1.97367
2656.63860,1.97362
2655.60890,1.97351
2654.57919,1.97328
2653.54949,1.97300
2652.51978,1.97276
2651.49008,1.97259
2650.46037,1.97246
2649.43067,1.97239
2648.40096,1.97234
2647.37126,1.97226
2646.34155,1.97218
2645.31185,1.97210
2644.28214,1.97196
2643.25244,1.97179
2642.22274,1.97161
2641.19303,1.97141
2640.16333,1.97115
2639.13362,1.97091
2638.10392,1.97079
2637.07421,1.97072
2636.04451,1.97053
2635.01480,1.97030
2633.98510,1.97027
2632.95539,1.97043
2631.92569,1.97061
2630.89598,1.97080
2629.86628,1.97100
2628.83657,1.97120
2627.80687,1.97138
2626.77716,1.97149
2625.74746,1.97156
2624.71775,1.97170
2623.68805,1.97193
2622.65834,1.97208
2621.62864,1.97211
2620.59893,1.97212
2619.56923,1.97216
2618.53952,1.97223
2617.50982,1.97224
2616.48011,1.97222
2615.45041,1.97230
2614.42070,1.97247
2613.39100,1.97260
2612.36129,1.97260
2611.33159,1.97255
2610.30188,1.97261
2609.27218,1.97281
2608.24247,1.97305
2607.21277,1.97330
2606.18306,1.97351
2605.15336,1.97358
2604.12365,1.97349
2603.09395,1.97333
2602.06424,1.97316
2601.03454,1.97307
2600.00483,1.97305
2598.97513,1.97295
2597.94543,1.97272
2596.91572,1.97249
2595.88602,1.97236
2594.85631,1.97231
2593.82661,1.97229
2592.79690,1.97223
2591.76720,1.97211
2590.73749,1.97201
2589.70779,1.97192
2588.67808,1.97184
2587.64838,1.97180
2586.61867,1.97179
2585.58897,1.97179
2584.55926,1.97183
2583.52956,1.97195
2582.49985,1.97205
2581.47015,1.97197
2580.44044,1.97178
2579.41074,1.97165
2578.38103,1.97163
2577.35133,1.97172
2576.32162,1.97182
2575.29192,1.97178
2574.26221,1.97163
2573.23251,1.97157
2572.20280,1.97161
2571.17310,1.97161
2570.14339,1.97156
2569.11369,1.97151
2568.08398,1.97143
2567.05428,1.97132
2566.02457,1.97131
2564.99487,1.97144
2563.96516,1.97157
2562.93546,1.97157
2561.90575,1.97153
2560.87605,1.97157
2559.84634,1.97165
2558.81664,1.97171
2557.78693,1.97169
2556.75723,1.97164
2555.72752,1.97167
2554.69782,1.97178
2553.66811,1.97192
2552.63841,1.97201
2551.60871,1.97202
2550.57900,1.97198
2549.54930,1.97197
2548.51959,1.97199
2547.48989,1.97193
2546.46018,1.97178
2545.43048,1.97168
2544.40077,1.97178
2543.37107,1.97207
2542.34136,1.97245
2541.31166,1.97289
2540.28195,1.97333
2539.25225,1.97371
2538.22254,1.97420
2537.19284,1.97490
2536.16313,1.97574
2535.13343,1.97653
2534.10372,1.97725
2533.07402,1.97799
2532.04431,1.97876
2531.01461,1.97948
2529.98490,1.98013
2528.95520,1.98066
2527.92549,1.98111
2526.89579,1.98160
2525.86608,1.98217
2524.83638,1.98273
2523.80667,1.98311
2522.77697,1.98323
2521.74726,1.98322
2520.71756,1.98323
2519.68785,1.98324
2518.65815,1.98317
2517.62844,1.98300
2516.59874,1.98279
2515.56903,1.98258
2514.53933,1.98239
2513.50962,1.98223
2512.47992,1.98206
2511.45021,1.98188
2510.42051,1.98168
2509.39080,1.98144
2508.36110,1.98114
2507.33140,1.98083
2506.30169,1.98057
2505.27199,1.98032
2504.24228,1.98012
2503.21258,1.98000
2502.18287,1.97988
2501.15317,1.97970
2500.12346,1.97941
2499.09376,1.97895
2498.06405,1.97837
2497.03435,1.97769
2496.00464,1.97694
2494.97494,1.97618
2493.94523,1.97547
2492.91553,1.97473
2491.88582,1.97394
2490.85612,1.97307
2489.82641,1.97213
2488.79671,1.97122
2487.76700,1.97038
2486.73730,1.96958
2485.70759,1.96881
2484.67789,1.96801
2483.64818,1.96722
2482.61848,1.96657
2481.58877,1.96609
2480.55907,1.96572
2479.52936,1.96540
2478.49966,1.96495
2477.46995,1.96437
2476.44025,1.96392
2475.41054,1.96370
2474.38084,1.96357
2473.35113,1.96335
2472.32143,1.96307
2471.29172,1.96287
2470.26202,1.96265
2469.23231,1.96220
2468.20261,1.96154
2467.17290,1.96087
2466.14320,1.96036
2465.11349,1.95998
2464.08379,1.95960
2463.05409,1.95921
2462.02438,1.95886
2460.99468,1.95856
2459.96497,1.95830
2458.93527,1.95810
2457.90556,1.95800
2456.87586,1.95800
2455.84615,1.95803
2454.81645,1.95797
2453.78674,1.95775
2452.75704,1.95752
2451.72733,1.95751
2450.69763,1.95766
2449.66792,1.95771
2448.63822,1.95767
2447.60851,1.95768
2446.57881,1.95766
2445.54910,1.95750
2444.51940,1.95732
2443.48969,1.95724
2442.45999,1.95725
2441.43028,1.95725
2440.40058,1.95719
2439.37087,1.95709
2438.34117,1.95700
2437.31146,1.95691
2436.28176,1.95682
2435.25205,1.95676
2434.22235,1.95668
2433.19264,1.95656
2432.16294,1.95642
2431.13323,1.95626
2430.10353,1.95602
2429.07382,1.95565
2428.04412,1.95530
2427.01441,1.95508
2425.98471,1.95490
2424.95500,1.95473
2423.92530,1.95458
2422.89559,1.95443
2421.86589,1.95426
2420.83618,1.95416
2419.80648,1.95417
2418.77678,1.95410
2417.74707,1.95387
2416.71737,1.95362
2415.68766,1.95350
2414.65796,1.95344
2413.62825,1.95333
2412.59855,1.95319
2411.56884,1.95309
2410.53914,1.95302
2409.50943,1.95291
2408.47973,1.95271
2407.45002,1.95244
2406.42032,1.95216
2405.39061,1.95185
2404.36091,1.95154
2403.33120,1.95129
2402.30150,1.95108
2401.27179,1.95085
2400.24209,1.95057
2399.21238,1.95022
2398.18268,1.94988
2397.15297,1.94962
2396.12327,1.94938
2395.09356,1.94904
2394.06386,1.94864
2393.03415,1.94834
2392.00445,1.94815
2390.97474,1.94801
2389.94504,1.94787
2388.91533,1.94766
2387.88563,1.94749
2386.85592,1.94744
2385.82622,1.94749
2384.79651,1.94759
2383.76681,1.94763
2382.73710,1.94754
2381.70740,1.94751
2380.67769,1.94759
2379.64799,1.94764
2378.61828,1.94763
2377.58858,1.94765
2376.55887,1.94777
2375.52917,1.94800
2374.49946,1.94817
2373.46976,1.94820
2372.44006,1.94822
2371.41035,1.94832
2370.38065,1.94845
2369.35094,1.94865
2368.32124,1.94886
2367.29153,1.94896
2366.26183,1.94893
2365.23212,1.94883
2364.20242,1.94869
2363.17271,1.94862
2362.14301,1.94865
2361.11330,1.94866
2360.08360,1.94848
2359.05389,1.94803
2358.02419,1.94731
2356.99448,1.94647
2355.96478,1.94563
2354.93507,1.94488
2353.90537,1.94436
2352.87566,1.94404
2351.84596,1.94377
2350.81625,1.94351
2349.78655,1.94323
2348.75684,1.94295
2347.72714,1.94283
2346.69743,1.94286
2345.66773,1.94293
2344.63802,1.94308
2343.60832,1.94322
2342.57861,1.94333
2341.54891,1.94339
2340.51920,1.94334
2339.48950,1.94326
2338.45979,1.94322
2337.43009,1.94320
2336.40038,1.94306
2335.37068,1.94278
2334.34097,1.94240
2333.31127,1.94184
2332.28156,1.94119
2331.25186,1.94076
2330.22215,1.94066
2329.19245,1.94062
2328.16275,1.94037
2327.13304,1.94001
2326.10334,1.93978
2325.07363,1.93960
2324.04393,1.93934
2323.01422,1.93910
2321.98452,1.93902
2320.95481,1.93910
2319.92511,1.93912
2318.89540,1.93904
2317.86570,1.93902
2316.83599,1.93901
2315.80629,1.93891
2314.77658,1.93885
2313.74688,1.93889
2312.71717,1.93890
2311.68747,1.93880
2310.65776,1.93857
2309.62806,1.93823
2308.59835,1.93777
2307.56865,1.93735
2306.53894,1.93706
2305.50924,1.93681
2304.47953,1.93642
2303.44983,1.93587
2302.42012,1.93533
2301.39042,1.93486
2300.36071,1.93439
2299.33101,1.93388
2298.30130,1.93350
2297.27160,1.93334
2296.24189,1.93325
2295.21219,1.93314
2294.18248,1.93318
2293.15278,1.93336
2292.12307,1.93350
2291.09337,1.93354
2290.06366,1.93356
2289.03396,1.93362
2288.00425,1.93367
2286.97455,1.93361
2285.94484,1.93345
2284.91514,1.93335
2283.88544,1.93335
2282.85573,1.93336
2281.82603,1.93331
2280.79632,1.93317
2279.76662,1.93300
2278.73691,1.93293
2277.70721,1.93301
2276.67750,1.93318
2275.64780,1.93338
2274.61809,1.93354
2273.58839,1.93370
2272.55868,1.93385
2271.52898,1.93401
2270.49927,1.93417
2269.46957,1.93431
2268.43986,1.93442
2267.41016,1.93448
2266.38045,1.93450
2265.35075,1.93451
2264.32104,1.93455
2263.29134,1.93455
2262.26163,1.93448
2261.23193,1.93436
2260.20222,1.93426
2259.17252,1.93417
2258.14281,1.93403
2257.11311,1.93388
2256.08340,1.93376
2255.05370,1.93374
2254.02399,1.93382
2252.99429,1.93391
2251.96458,1.93394
2250.93488,1.93390
2249.90517,1.93381
2248.87547,1.93377
2247.84576,1.93384
2246.81606,1.93395
2245.78635,1.93400
2244.75665,1.93394
2243.72694,1.93381
2242.69724,1.93369
2241.66753,1.93364
2240.63783,1.93367
2239.60813,1.93371
2238.57842,1.93369
2237.54872,1.93365
2236.51901,1.93363
2235.48931,1.93367
2234.45960,1.93373
2233.42990,1.93378
2232.40019,1.93384
2231.37049,1.93391
2230.34078,1.93399
2229.31108,1.93408
2228.28137,1.93422
2227.25167,1.93444
2226.22196,1.93471
2225.19226,1.93494
2224.16255,1.93510
2223.13285,1.93521
2222.10314,1.93528
2221.07344,1.93524
2220.04373,1.93509
2219.01403,1.93499
2217.98432,1.93503
2216.95462,1.93514
2215.92491,1.93524
2214.89521,1.93526
2213.86550,1.93524
2212.83580,1.93524
2211.80609,1.93527
2210.77639,1.93528
2209.74668,1.93525
2208.71698,1.93525
2207.68727,1.93531
2206.65757,1.93546
2205.62786,1.93560
2204.59816,1.93564
2203.56845,1.93570
2202.53875,1.93582
2201.50904,1.93593
2200.47934,1.93596
2199.44963,1.93597
2198.41993,1.93612
2197.39022,1.93631
2196.36052,1.93640
2195.33081,1.93650
2194.30111,1.93677
2193.27141,1.93713
2192.24170,1.93746
2191.21200,1.93775
2190.18229,1.93802
2189.15259,1.93825
2188.12288,1.93844
2187.09318,1.93859
2186.06347,1.93873
2185.03377,1.93887
2184.00406,1.93898
2182.97436,1.93899
2181.94465,1.93890
2180.91495,1.93871
2179.88524,1.93851
2178.85554,1.93836
2177.82583,1.93828
2176.79613,1.93820
2175.76642,1.93813
2174.73672,1.93811
2173.70701,1.93809
2172.67731,1.93802
2171.64760,1.93794
2170.61790,1.93798
2169.58819,1.93815
2168.55849,1.93831
2167.52878,1.93846
2166.49908,1.93864
2165.46937,1.93880
2164.43967,1.93897
2163.40996,1.93919
2162.38026,1.93943
2161.35055,1.93961
2160.32085,1.93973
2159.29114,1.93978
2158.26144,1.93977
2157.23173,1.93981
2156.20203,1.93999
2155.17232,1.94024
2154.14262,1.94054
2153.11291,1.94094
2152.08321,1.94141
2151.05350,1.94189
2150.02380,1.94233
2148.99410,1.94275
2147.96439,1.94319
2146.93469,1.94364
2145.90498,1.94403
2144.87528,1.94433
2143.84557,1.94457
2142.81587,1.94480
2141.78616,1.94499
2140.75646,1.94515
2139.72675,1.94540
2138.69705,1.94571
2137.66734,1.94591
2136.63764,1.94596
2135.60793,1.94588
2134.57823,1.94572
2133.54852,1.94555
2132.51882,1.94548
2131.48911,1.94554
2130.45941,1.94560
2129.42970,1.94553
2128.40000,1.94531
2127.37029,1.94499
2126.34059,1.94463
2125.31088,1.94427
2124.28118,1.94389
2123.25147,1.94353
2122.22177,1.94318
2121.19206,1.94282
2120.16236,1.94245
2119.13265,1.94212
2118.10295,1.94184
2117.07324,1.94159
2116.04354,1.94142
2115.01383,1.94141
2113.98413,1.94143
2112.95442,1.94133
2111.92472,1.94111
2110.89501,1.94082
2109.86531,1.94059
2108.83560,1.94052
2107.80590,1.94053
2106.77619,1.94052
2105.74649,1.94045
2104.71679,1.94035
2103.68708,1.94024
2102.65738,1.94021
2101.62767,1.94032
2100.59797,1.94058
2099.56826,1.94092
2098.53856,1.94125
2097.50885,1.94158
2096.47915,1.94185
2095.44944,1.94202
2094.41974,1.94214
2093.39003,1.94225
2092.36033,1.94235
2091.33062,1.94245
2090.30092,1.94247
2089.27121,1.94235
2088.24151,1.94210
2087.21180,1.94179
2086.18210,1.94149
2085.15239,1.94125
2084.12269,1.94102
2083.09298,1.94073
2082.06328,1.94047
2081.03357,1.94034
2080.00387,1.94030
2078.97416,1.94035
2077.94446,1.94053
2076.91475,1.94085
2075.88505,1.94118
2074.85534,1.94146
2073.82564,1.94173
2072.79593,1.94206
2071.76623,1.94243
2070.73652,1.94276
2069.70682,1.94303
2068.67711,1.94326
2067.64741,1.94340
2066.61770,1.94339
2065.58800,1.94328
2064.55829,1.94316
2063.52859,1.94314
2062.49888,1.94316
2061.46918,1.94320
2060.43948,1.94323
2059.40977,1.94323
2058.38007,1.94316
2057.35036,1.94305
2056.32066,1.94299
2055.29095,1.94303
2054.26125,1.94314
2053.23154,1.94327
2052.20184,1.94333
2051.17213,1.94345
2050.14243,1.94374
2049.11272,1.94405
2048.08302,1.94431
2047.05331,1.94449
2046.02361,1.94447
2044.99390,1.94424
2043.96420,1.94392
2042.93449,1.94353
2041.90479,1.94308
2040.87508,1.94261
2039.84538,1.94220
2038.81567,1.94192
2037.78597,1.94170
2036.75626,1.94142
2035.72656,1.94106
2034.69685,1.94064
2033.66715,1.94017
2032.63744,1.93975
2031.60774,1.93951
2030.57803,1.93942
2029.54833,1.93941
2028.51862,1.93943
2027.48892,1.93948
2026.45921,1.93959
2025.42951,1.93973
2024.39980,1.93973
2023.37010,1.93963
2022.34039,1.93950
2021.31069,1.93936
2020.28098,1.93919
2019.25128,1.93907
2018.22157,1.93898
2017.19187,1.93884
2016.16216,1.93873
2015.13246,1.93875
2014.10276,1.93883
2013.07305,1.93884
2012.04335,1.93881
2011.01364,1.93882
2009.98394,1.93882
2008.95423,1.93878
2007.92453,1.93881
2006.89482,1.93883
2005.86512,1.93880
2004.83541,1.93875
2003.80571,1.93866
2002.77600,1.93852
2001.74630,1.93837
2000.71659,1.93824
1999.68689,1.93808
1998.65718,1.93797
1997.62748,1.93800
1996.59777,1.93804
1995.56807,1.93807
1994.53836,1.93816
1993.50866,1.93821
1992.47895,1.93818
1991.44925,1.93814
1990.41954,1.93809
1989.38984,1.93805
1988.36013,1.93805
1987.33043,1.93808
1986.30072,1.93807
1985.27102,1.93806
1984.24131,1.93815
1983.21161,1.93828
1982.18190,1.93832
1981.15220,1.93837
1980.12249,1.93851
1979.09279,1.93863
1978.06308,1.93872
1977.03338,1.93893
1976.00367,1.93922
1974.97397,1.93951
1973.94426,1.93984
1972.91456,1.94022
1971.88485,1.94060
1970.85515,1.94093
1969.82545,1.94110
1968.79574,1.94117
1967.76604,1.94128
1966.73633,1.94140
1965.70663,1.94151
1964.67692,1.94162
1963.64722,1.94169
1962.61751,1.94177
1961.58781,1.94188
1960.55810,1.94196
1959.52840,1.94194
1958.49869,1.94184
1957.46899,1.94171
1956.43928,1.94163
1955.40958,1.94161
1954.37987,1.94155
1953.35017,1.94142
1952.32046,1.94131
1951.29076,1.94121
1950.26105,1.94111
1949.23135,1.94101
1948.20164,1.94088
1947.17194,1.94076
1946.14223,1.94074
1945.11253,1.94084
1944.08282,1.94102
1943.05312,1.94122
1942.02341,1.94136
1940.99371,1.94142
1939.96400,1.94142
1938.93430,1.94147
1937.90459,1.94168
1936.87489,1.94200
1935.84518,1.94226
1934.81548,1.94240
1933.78577,1.94247
1932.75607,1.94251
1931.72636,1.94261
1930.69666,1.94283
1929.66695,1.94300
1928.63725,1.94301
1927.60754,1.94304
1926.57784,1.94311
1925.54814,1.94305
1924.51843,1.94287
1923.48873,1.94280
1922.45902,1.94298
1921.42932,1.94325
1920.39961,1.94342
1919.36991,1.94354
1918.34020,1.94365
1917.31050,1.94373
1916.28079,1.94379
1915.25109,1.94396
1914.22138,1.94428
1913.19168,1.94468
1912.16197,1.94504
1911.13227,1.94537
1910.10256,1.94570
1909.07286,1.94618
1908.04315,1.94678
1907.01345,1.94737
1905.98374,1.94784
1904.95404,1.94811
1903.92433,1.94828
1902.89463,1.94848
1901.86492,1.94859
1900.83522,1.94844
1899.80551,1.94817
1898.77581,1.94799
1897.74610,1.94783
1896.71640,1.94758
1895.68669,1.94732
1894.65699,1.94712
1893.62728,1.94691
1892.59758,1.94665
1891.56787,1.94647
1890.53817,1.94644
1889.50846,1.94653
1888.47876,1.94675
1887.44905,1.94717
1886.41935,1.94776
1885.38964,1.94841
1884.35994,1.94900
1883.33023,1.94947
1882.30053,1.94985
1881.27083,1.95012
1880.24112,1.95031
1879.21142,1.95053
1878.18171,1.95072
1877.15201,1.95082
1876.12230,1.95088
1875.09260,1.95102
1874.06289,1.95129
1873.03319,1.95161
1872.00348,1.95193
1870.97378,1.95222
1869.94407,1.95246
1868.91437,1.95269
1867.88466,1.95297
1866.85496,1.95329
1865.82525,1.95368
1864.79555,1.95414
1863.76584,1.95459
1862.73614,1.95498
1861.70643,1.95540
1860.67673,1.95595
1859.64702,1.95649
1858.61732,1.95692
1857.58761,1.95730
1856.55791,1.95760
1855.52820,1.95778
1854.49850,1.95802
1853.46879,1.95834
1852.43909,1.95875
1851.40938,1.95926
1850.37968,1.95978
1849.34997,1.96020
1848.32027,1.96051
1847.29056,1.96075
1846.26086,1.96101
1845.23115,1.96135
1844.20145,1.96178
1843.17174,1.96225
1842.14204,1.96264
1841.11233,1.96289
1840.08263,1.96316
1839.05292,1.96356
1838.02322,1.96416
1836.99351,1.96493
1835.96381,1.96577
1834.93411,1.96657
1833.90440,1.96730
1832.87470,1.96796
1831.84499,1.96851
1830.81529,1.96905
1829.78558,1.96973
1828.75588,1.97049
1827.72617,1.97123
1826.69647,1.97192
1825.66676,1.97255
1824.63706,1.97316
1823.60735,1.97383
1822.57765,1.97455
1821.54794,1.97534
1820.51824,1.97623
1819.48853,1.97719
1818.45883,1.97813
1817.42912,1.97902
1816.39942,1.98001
1815.36971,1.98131
1814.34001,1.98281
1813.31030,1.98438
1812.28060,1.98595
1811.25089,1.98759
1810.22119,1.98947
1809.19148,1.99161
1808.16178,1.99391
1807.13207,1.99629
1806.10237,1.99880
1805.07266,2.00146
1804.04296,2.00405
1803.01325,2.00646
1801.98355,2.00881
1800.95384,2.01115
1799.92414,2.01353
1798.89443,2.01588
1797.86473,2.01801
1796.83502,2.01982
1795.80532,2.02142
1794.77561,2.02286
1793.74591,2.02402
1792.71620,2.02479
1791.68650,2.02532
1790.65680,2.02575
1789.62709,2.02606
1788.59739,2.02632
1787.56768,2.02656
1786.53798,2.02682
1785.50827,2.02725
1784.47857,2.02777
1783.44886,2.02826
1782.41916,2.02880
1781.38945,2.02960
1780.35975,2.03054
1779.33004,2.03135
1778.30034,2.03217
1777.27063,2.03320
1776.24093,2.03440
1775.21122,2.03582
1774.18152,2.03723
1773.15181,2.03817
1772.12211,2.03890
1771.09240,2.03988
1770.06270,2.04113
1769.03299,2.04232
1768.00329,2.04339
1766.97358,2.04464
1765.94388,2.04615
1764.91417,2.04784
1763.88447,2.04967
1762.85476,2.05137
1761.82506,2.05293
1760.79535,2.05462
1759.76565,2.05666
1758.73594,2.05900
1757.70624,2.06156
1756.67653,2.06428
1755.64683,2.06701
1754.61712,2.06964
1753.58742,2.07226
1752.55771,2.07485
1751.52801,2.07745
1750.49830,2.08009
1749.46860,2.08259
1748.43889,2.08496
1747.40919,2.08761
1746.37949,2.09006
1745.34978,2.09137
1744.32008,2.09197
1743.29037,2.09233
1742.26067,2.09257
1741.23096,2.09252
1740.20126,2.09215
1739.17155,2.09140
1738.14185,2.09024
1737.11214,2.08898
1736.08244,2.08787
1735.05273,2.08677
1734.02303,2.08554
1732.99332,2.08431
1731.96362,2.08323
1730.93391,2.08230
1729.90421,2.08137
1728.87450,2.08048
1727.84480,2.07997
1726.81509,2.07990
1725.78539,2.08008
1724.75568,2.08037
1723.72598,2.08065
1722.69627,2.08070
1721.66657,2.08019
1720.63686,2.07927
1719.60716,2.07878
1718.57745,2.07857
1717.54775,2.07833
1716.51804,2.07774
1715.48834,2.07680
1714.45863,2.07577
1713.42893,2.07495
1712.39922,2.07420
1711.36952,2.07302
1710.33981,2.07174
1709.31011,2.07067
1708.28040,2.06973
1707.25070,2.06870
1706.22099,2.06760
1705.19129,2.06639
1704.16158,2.06528
1703.13188,2.06439
1702.10218,2.06349
1701.07247,2.06268
1700.04277,2.06211
1699.01306,2.06167
1697.98336,2.06128
1696.95365,2.06093
1695.92395,2.06025
1694.89424,2.05910
1693.86454,2.05770
1692.83483,2.05613
1691.80513,2.05428
1690.77542,2.05226
1689.74572,2.05036
1688.71601,2.04859
1687.68631,2.04658
1686.65660,2.04419
1685.62690,2.04205
1684.59719,2.04007
1683.56749,2.03793
1682.53778,2.03559
1681.50808,2.03329
1680.47837,2.03104
1679.44867,2.02898
1678.41896,2.02720
1677.38926,2.02570
1676.35955,2.02452
1675.32985,2.02365
1674.30014,2.02299
1673.27044,2.02226
1672.24073,2.02123
1671.21103,2.01982
1670.18132,2.01849
1669.15162,2.01752
1668.12191,2.01669
1667.09221,2.01587
1666.06250,2.01515
1665.03280,2.01403
1664.00309,2.01246
1662.97339,2.01093
1661.94368,2.00956
1660.91398,2.00844
1659.88427,2.00736
1658.85457,2.00603
1657.82486,2.00457
1656.79516,2.00315
1655.76546,2.00187
1654.73575,2.00085
1653.70605,1.99998
1652.67634,1.99915
1651.64664,1.99843
1650.61693,1.99788
1649.58723,1.99734
1648.55752,1.99651
1647.52782,1.99548
1646.49811,1.99480
1645.46841,1.99456
1644.43870,1.99454
1643.40900,1.99450
1642.37929,1.99439
1641.34959,1.99421
1640.31988,1.99363
1639.29018,1.99314
1638.26047,1.99315
1637.23077,1.99338
1636.20106,1.99371
1635.17136,1.99388
1634.14165,1.99384
1633.11195,1.99383
1632.08224,1.99380
1631.05254,1.99367
1630.02283,1.99347
1628.99313,1.99297
1627.96342,1.99216
1626.93372,1.99148
1625.90401,1.99101
1624.87431,1.99063
1623.84460,1.99032
1622.81490,1.99025
1621.78519,1.99057
1620.75549,1.99109
1619.72578,1.99170
1618.69608,1.99241
1617.66637,1.99322
1616.63667,1.99404
1615.60696,1.99478
1614.57726,1.99555
1613.54755,1.99650
1612.51785,1.99754
1611.48815,1.99844
1610.45844,1.99910
1609.42874,1.99961
1608.39903,2.00001
1607.36933,2.00023
1606.33962,2.00026
1605.30992,2.00007
1604.28021,1.99963
1603.25051,1.99928
1602.22080,1.99927
1601.19110,1.99926
1600.16139,1.99911
1599.13169,1.99886
1598.10198,1.99852
1597.07228,1.99809
1596.04257,1.99774
1595.01287,1.99751
1593.98316,1.99727
1592.95346,1.99683
1591.92375,1.99614
1590.89405,1.99537
1589.86434,1.99472
1588.83464,1.99404
1587.80493,1.99304
1586.77523,1.99207
1585.74552,1.99145
1584.71582,1.99112
1583.68611,1.99089
1582.65641,1.99068
1581.62670,1.99049
1580.59700,1.99043
1579.56729,1.99059
1578.53759,1.99094
1577.50788,1.99129
1576.47818,1.99144
1575.44847,1.99142
1574.41877,1.99140
1573.38906,1.99154
1572.35936,1.99200
1571.32965,1.99232
1570.29995,1.99184
1569.27024,1.99132
1568.24054,1.99099
1567.21084,1.99087
1566.18113,1.99088
1565.15143,1.99113
1564.12172,1.99164
1563.09202,1.99231
1562.06231,1.99327
1561.03261,1.99459
1560.00290,1.99623
1558.97320,1.99812
1557.94349,2.00026
1556.91379,2.00266
1555.88408,2.00532
1554.85438,2.00825
1553.82467,2.01131
1552.79497,2.01415
1551.76526,2.01721
1550.73556,2.01962
1549.70585,2.02007
1548.67615,2.01823
1547.64644,2.01385
1546.61674,2.00648
1545.58703,1.99631
1544.55733,1.98467
1543.52762,1.97182
1542.49792,1.95801
1541.46821,1.94360
1540.43851,1.92898
1539.40880,1.91440
1538.37910,1.90017
1537.34939,1.88675
1536.31969,1.87490
1535.28998,1.86503
1534.26028,1.85700
1533.23057,1.85062
1532.20087,1.84655
1531.17116,1.84527
1530.14146,1.84670
1529.11175,1.85028
1528.08205,1.85554
1527.05234,1.86207
1526.02264,1.86821
1524.99293,1.87341
1523.96323,1.87818
1522.93353,1.88254
1521.90382,1.88636
1520.87412,1.88955
1519.84441,1.89237
1518.81471,1.89489
1517.78500,1.89721
1516.75530,1.89938
1515.72559,1.90131
1514.69589,1.90303
1513.66618,1.90461
1512.63648,1.90604
1511.60677,1.90740
1510.57707,1.90845
1509.54736,1.90912
1508.51766,1.90957
1507.48795,1.91043
1506.45825,1.91191
1505.42854,1.91378
1504.39884,1.91592
1503.36913,1.91833
1502.33943,1.92089
1501.30972,1.92346
1500.28002,1.92603
1499.25031,1.92859
1498.22061,1.93124
1497.19090,1.93386
1496.16120,1.93619
1495.13149,1.93820
1494.10179,1.94019
1493.07208,1.94244
1492.04238,1.94468
1491.01267,1.94673
1489.98297,1.94862
1488.95326,1.95033
1487.92356,1.95188
1486.89385,1.95349
1485.86415,1.95522
1484.83444,1.95706
1483.80474,1.95909
1482.77503,1.96166
1481.74533,1.96495
1480.71562,1.96863
1479.68592,1.97249
1478.65621,1.97648
1477.62651,1.98072
1476.59681,1.98522
1475.56710,1.98945
1474.53740,1.99299
1473.50769,1.99570
1472.47799,1.99747
1471.44828,1.99829
1470.41858,1.99826
1469.38887,1.99727
1468.35917,1.99522
1467.32946,1.99247
1466.29976,1.98936
1465.27005,1.98592
1464.24035,1.98199
1463.21064,1.97752
1462.18094,1.97277
1461.15123,1.96782
1460.12153,1.96268
1459.09182,1.95769
1458.06212,1.95323
1457.03241,1.94935
1456.00271,1.94617
1454.97300,1.94376
1453.94330,1.94216
1452.91359,1.94137
1451.88389,1.94106
1450.85418,1.94075
1449.82448,1.94052
1448.79477,1.94031
1447.76507,1.94021
1446.73536,1.94060
1445.70566,1.94139
1444.67595,1.94237
1443.64625,1.94376
1442.61654,1.94574
1441.58684,1.94779
1440.55713,1.94957
1439.52743,1.95104
1438.49772,1.95225
1437.46802,1.95337
1436.43831,1.95437
1435.40861,1.95504
1434.37890,1.95555
1433.34920,1.95625
1432.31950,1.95719
1431.28979,1.95816
1430.26009,1.95891
1429.23038,1.95957
1428.20068,1.96028
1427.17097,1.96095
1426.14127,1.96148
1425.11156,1.96188
1424.08186,1.96203
1423.05215,1.96207
1422.02245,1.96216
1420.99274,1.96211
1419.96304,1.96187
1418.93333,1.96154
1417.90363,1.96104
1416.87392,1.96026
1415.84422,1.95947
1414.81451,1.95885
1413.78481,1.95837
1412.75510,1.95807
1411.72540,1.95804
1410.69569,1.95826
1409.66599,1.95867
1408.63628,1.95901
1407.60658,1.95892
1406.57687,1.95809
1405.54717,1.95646
1404.51746,1.95438
1403.48776,1.95199
1402.45805,1.94930
1401.42835,1.94633
1400.39864,1.94312
1399.36894,1.93967
1398.33923,1.93610
1397.30953,1.93264
1396.27982,1.92941
1395.25012,1.92643
1394.22041,1.92376
1393.19071,1.92151
1392.16100,1.91980
1391.13130,1.91870
1390.10159,1.91829
1389.07189,1.91860
1388.04219,1.91961
1387.01248,1.92110
1385.98278,1.92270
1384.95307,1.92414
1383.92337,1.92539
1382.89366,1.92648
1381.86396,1.92743
1380.83425,1.92828
1379.80455,1.92911
1378.77484,1.93003
1377.74514,1.93101
1376.71543,1.93195
1375.68573,1.93281
1374.65602,1.93353
1373.62632,1.93406
1372.59661,1.93435
1371.56691,1.93424
1370.53720,1.93365
1369.50750,1.93259
1368.47779,1.93115
1367.44809,1.92926
1366.41838,1.92695
1365.38868,1.92435
1364.35897,1.92157
1363.32927,1.91862
1362.29956,1.91557
1361.26986,1.91258
1360.24015,1.90985
1359.21045,1.90746
1358.18074,1.90540
1357.15104,1.90370
1356.12133,1.90240
1355.09163,1.90154
1354.06192,1.90121
1353.03222,1.90136
1352.00251,1.90188
1350.97281,1.90276
1349.94310,1.90393
1348.91340,1.90531
1347.88369,1.90681
1346.85399,1.90833
1345.82428,1.90983
1344.79458,1.91136
1343.76488,1.91295
1342.73517,1.91459
1341.70547,1.91632
1340.67576,1.91820
1339.64606,1.92017
1338.61635,1.92222
1337.58665,1.92445
1336.55694,1.92690
1335.52724,1.92959
1334.49753,1.93243
1333.46783,1.93525
1332.43812,1.93803
1331.40842,1.94066
1330.37871,1.94291
1329.34901,1.94460
1328.31930,1.94556
1327.28960,1.94566
1326.25989,1.94473
1325.23019,1.94262
1324.20048,1.93943
1323.17078,1.93544
1322.14107,1.93075
1321.11137,1.92540
1320.08166,1.91959
1319.05196,1.91349
1318.02225,1.90728
1316.99255,1.90124
1315.96284,1.89558
1314.93314,1.89049
1313.90343,1.88618
1312.87373,1.88289
1311.84402,1.88072
1310.81432,1.87964
1309.78461,1.87955
1308.75491,1.88032
1307.72520,1.88186
1306.69550,1.88394
1305.66579,1.88627
1304.63609,1.88872
1303.60638,1.89114
1302.57668,1.89340
1301.54697,1.89544
1300.51727,1.89732
1299.48756,1.89925
1298.45786,1.90124
1297.42816,1.90307
1296.39845,1.90461
1295.36875,1.90590
1294.33904,1.90701
1293.30934,1.90800
1292.27963,1.90887
1291.24993,1.90958
1290.22022,1.91019
1289.19052,1.91073
1288.16081,1.91120
1287.13111,1.91158
1286.10140,1.91187
1285.07170,1.91206
1284.04199,1.91209
1283.01229,1.91197
1281.98258,1.91179
1280.95288,1.91164
1279.92317,1.91148
1278.89347,1.91125
1277.86376,1.91102
1276.83406,1.91086
1275.80435,1.91074
1274.77465,1.91064
1273.74494,1.91053
1272.71524,1.91038
1271.68553,1.91011
1270.65583,1.90971
1269.62612,1.90918
1268.59642,1.90849
1267.56671,1.90771
1266.53701,1.90698
1265.50730,1.90639
1264.47760,1.90593
1263.44789,1.90559
1262.41819,1.90545
1261.38848,1.90556
1260.35878,1.90584
1259.32907,1.90625
1258.29937,1.90676
1257.26966,1.90736
1256.23996,1.90797
1255.21025,1.90843
1254.18055,1.90877
1253.15085,1.90913
1252.12114,1.90956
1251.09144,1.90990
1250.06173,1.91006
1249.03203,1.91004
1248.00232,1.90980
1246.97262,1.90932
1245.94291,1.90861
1244.91321,1.90770
1243.88350,1.90663
1242.85380,1.90550
1241.82409,1.90436
1240.79439,1.90327
1239.76468,1.90227
1238.73498,1.90136
1237.70527,1.90050
1236.67557,1.89966
1235.64586,1.89886
1234.61616,1.89806
1233.58645,1.89715
1232.55675,1.89620
1231.52704,1.89537
1230.49734,1.89469
1229.46763,1.89416
1228.43793,1.89388
1227.40822,1.89386
1226.37852,1.89396
1225.34881,1.89412
1224.31911,1.89440
1223.28940,1.89482
1222.25970,1.89539
1221.22999,1.89604
1220.20029,1.89668
1219.17058,1.89730
1218.14088,1.89792
1217.11117,1.89854
1216.08147,1.89918
1215.05176,1.89981
1214.02206,1.90038
1212.99235,1.90090
1211.96265,1.90137
1210.93294,1.90179
1209.90324,1.90216
1208.87354,1.90254
1207.84383,1.90310
1206.81413,1.90389
1205.78442,1.90474
1204.75472,1.90558
1203.72501,1.90644
1202.69531,1.90734
1201.66560,1.90832
1200.63590,1.90946
1199.60619,1.91086
1198.57649,1.91256
1197.54678,1.91449
1196.51708,1.91661
1195.48737,1.91897
1194.45767,1.92158
1193.42796,1.92431
1192.39826,1.92708
1191.36855,1.92991
1190.33885,1.93274
1189.30914,1.93548
1188.27944,1.93801
1187.24973,1.94023
1186.22003,1.94216
1185.19032,1.94398
1184.16062,1.94568
1183.13091,1.94721
1182.10121,1.94852
1181.07150,1.94951
1180.04180,1.95014
1179.01209,1.95040
1177.98239,1.95038
1176.95268,1.95018
1175.92298,1.94982
1174.89327,1.94938
1173.86357,1.94889
1172.83386,1.94831
1171.80416,1.94764
1170.77445,1.94689
1169.74475,1.94599
1168.71504,1.94491
1167.68534,1.94381
1166.65563,1.94270
1165.62593,1.94142
1164.59623,1.93991
1163.56652,1.93819
1162.53682,1.93645
1161.50711,1.93483
1160.47741,1.93332
1159.44770,1.93198
1158.41800,1.93085
1157.38829,1.92983
1156.35859,1.92874
1155.32888,1.92754
1154.29918,1.92630
1153.26947,1.92515
1152.23977,1.92411
1151.21006,1.92320
1150.18036,1.92242
1149.15065,1.92162
1148.12095,1.92071
1147.09124,1.91970
1146.06154,1.91867
1145.03183,1.91769
1144.00213,1.91677
1142.97242,1.91574
1141.94272,1.91440
1140.91301,1.91281
1139.88331,1.91119
1138.85360,1.90972
1137.82390,1.90848
1136.79419,1.90733
1135.76449,1.90617
1134.73478,1.90510
1133.70508,1.90410
1132.67537,1.90300
1131.64567,1.90179
1130.61596,1.90060
1129.58626,1.89958
1128.55655,1.89866
1127.52685,1.89773
1126.49714,1.89684
1125.46744,1.89598
1124.43773,1.89507
1123.40803,1.89414
1122.37832,1.89322
1121.34862,1.89231
1120.31891,1.89151
1119.28921,1.89077
1118.25951,1.88999
1117.22980,1.88928
1116.20010,1.88895
1115.17039,1.88904
1114.14069,1.88947
1113.11098,1.89015
1112.08128,1.89093
1111.05157,1.89177
1110.02187,1.89280
1108.99216,1.89397
1107.96246,1.89513
1106.93275,1.89625
1105.90305,1.89746
1104.87334,1.89875
1103.84364,1.89998
1102.81393,1.90109
1101.78423,1.90215
1100.75452,1.90301
1099.72482,1.90356
1098.69511,1.90392
1097.66541,1.90412
1096.63570,1.90421
1095.60600,1.90432
1094.57629,1.90443
1093.54659,1.90448
1092.51688,1.90456
1091.48718,1.90478
1090.45747,1.90513
1089.42777,1.90555
1088.39806,1.90600
1087.36836,1.90646
1086.33865,1.90705
1085.30895,1.90790
1084.27924,1.90891
1083.24954,1.90998
1082.21983,1.91115
1081.19013,1.91247
1080.16042,1.91390
1079.13072,1.91522
1078.10101,1.91642
1077.07131,1.91764
1076.04160,1.91884
1075.01190,1.91987
1073.98220,1.92079
1072.95249,1.92164
1071.92279,1.92244
1070.89308,1.92318
1069.86338,1.92376
1068.83367,1.92413
1067.80397,1.92431
1066.77426,1.92430
1065.74456,1.92411
1064.71485,1.92366
1063.68515,1.92295
1062.65544,1.92212
1061.62574,1.92121
1060.59603,1.92015
1059.56633,1.91888
1058.53662,1.91746
1057.50692,1.91593
1056.47721,1.91430
1055.44751,1.91251
1054.41780,1.91060
1053.38810,1.90872
1052.35839,1.90695
1051.32869,1.90519
1050.29898,1.90338
1049.26928,1.90153
1048.23957,1.89960
1047.20987,1.89753
1046.18016,1.89528
1045.15046,1.89290
1044.12075,1.89055
1043.09105,1.88818
1042.06134,1.88569
1041.03164,1.88308
1040.00193,1.88027
1038.97223,1.87734
1037.94252,1.87449
1036.91282,1.87180
1035.88311,1.86938
1034.85341,1.86730
1033.82370,1.86548
1032.79400,1.86381
1031.76429,1.86233
1030.73459,1.86123
1029.70489,1.86049
1028.67518,1.86001
1027.64548,1.85981
1026.61577,1.85984
1025.58607,1.85993
1024.55636,1.86001
1023.52666,1.86011
1022.49695,1.86025
1021.46725,1.86047
1020.43754,1.86080
1019.40784,1.86115
1018.37813,1.86135
1017.34843,1.86143
1016.31872,1.86148
1015.28902,1.86145
1014.25931,1.86136
1013.22961,1.86134
1012.19990,1.86146
1011.17020,1.86166
1010.14049,1.86179
1009.11079,1.86185
1008.08108,1.86192
1007.05138,1.86210
1006.02167,1.86244
1004.99197,1.86289
1003.96226,1.86340
1002.93256,1.86394
1001.90285,1.86439
1000.87315,1.86468
999.84344,1.86483
998.81374,1.86488
997.78403,1.86494
996.75433,1.86517
995.72462,1.86563
994.69492,1.86631
993.66521,1.86725
992.63551,1.86840
991.60580,1.86953
990.57610,1.87044
989.54639,1.87118
988.51669,1.87185
987.48698,1.87240
986.45728,1.87271
985.42758,1.87282
984.39787,1.87285
983.36817,1.87287
982.33846,1.87289
981.30876,1.87286
980.27905,1.87274
979.24935,1.87243
978.21964,1.87189
977.18994,1.87121
976.16023,1.87043
975.13053,1.86958
974.10082,1.86883
973.07112,1.86835
972.04141,1.86823
971.01171,1.86852
969.98200,1.86908
968.95230,1.86978
967.92259,1.87048
966.89289,1.87109
965.86318,1.87163
964.83348,1.87214
963.80377,1.87255
962.77407,1.87271
961.74436,1.87267
960.71466,1.87259
959.68495,1.87249
958.65525,1.87231
957.62554,1.87199
956.59584,1.87150
955.56613,1.87099
954.53643,1.87049
953.50672,1.86996
952.47702,1.86950
951.44731,1.86902
950.41761,1.86838
949.38790,1.86779
948.35820,1.86748
947.32849,1.86744
946.29879,1.86750
945.26908,1.86750
944.23938,1.86745
943.20967,1.86745
942.17997,1.86750
941.15026,1.86762
940.12056,1.86783
939.09086,1.86803
938.06115,1.86819
937.03145,1.86837
936.00174,1.86862
934.97204,1.86899
933.94233,1.86956
932.91263,1.87030
931.88292,1.87110
930.85322,1.87196
929.82351,1.87289
928.79381,1.87386
927.76410,1.87474
926.73440,1.87538
925.70469,1.87589
924.67499,1.87656
923.64528,1.87739
922.61558,1.87807
921.58587,1.87847
920.55617,1.87869
919.52646,1.87885
918.49676,1.87881
917.46705,1.87848
916.43735,1.87804
915.40764,1.87762
914.37794,1.87718
913.34823,1.87672
912.31853,1.87635
911.28882,1.87614
910.25912,1.87599
909.22941,1.87583
908.19971,1.87567
907.17000,1.87564
906.14030,1.87587
905.11059,1.87630
904.08089,1.87671
903.05118,1.87707
902.02148,1.87752
900.99177,1.87808
899.96207,1.87884
898.93236,1.87981
897.90266,1.88077
896.87295,1.88156
895.84325,1.88226
894.81355,1.88290
893.78384,1.88340
892.75414,1.88385
891.72443,1.88446
890.69473,1.88529
889.66502,1.88608
888.63532,1.88666
887.60561,1.88706
886.57591,1.88735
885.54620,1.88760
884.51650,1.88804
883.48679,1.88870
882.45709,1.88944
881.42738,1.89024
880.39768,1.89109
879.36797,1.89202
878.33827,1.89311
877.30856,1.89423
876.27886,1.89538
875.24915,1.89673
874.21945,1.89816
873.18974,1.89941
872.16004,1.90059
871.13033,1.90194
870.10063,1.90341
869.07092,1.90489
868.04122,1.90630
867.01151,1.90755
865.98181,1.90848
864.95210,1.90894
863.92240,1.90916
862.89269,1.90933
861.86299,1.90948
860.83328,1.90972
859.80358,1.91022
858.77387,1.91107
857.74417,1.91232
856.71446,1.91390
855.68476,1.91558
854.65505,1.91715
853.62535,1.91861
852.59564,1.91999
851.56594,1.92134
850.53624,1.92271
849.50653,1.92408
848.47683,1.92550
847.44712,1.92681
846.41742,1.92785
845.38771,1.92860
844.35801,1.92904
843.32830,1.92903
842.29860,1.92841
841.26889,1.92730
840.23919,1.92614
839.20948,1.92531
838.17978,1.92483
837.15007,1.92465
836.12037,1.92472
835.09066,1.92485
834.06096,1.92482
833.03125,1.92447
832.00155,1.92361
830.97184,1.92218
829.94214,1.92029
828.91243,1.91808
827.88273,1.91567
826.85302,1.91288
825.82332,1.90972
824.79361,1.90665
823.76391,1.90397
822.73420,1.90148
821.70450,1.89900
820.67479,1.89653
819.64509,1.89405
818.61538,1.89174
817.58568,1.88996
816.55597,1.88898
815.52627,1.88890
814.49656,1.88971
813.46686,1.89124
812.43715,1.89298
811.40745,1.89448
810.37774,1.89559
809.34804,1.89658
808.31833,1.89772
807.28863,1.89888
806.25893,1.89983
805.22922,1.90061
804.19952,1.90135
803.16981,1.90210
802.14011,1.90266
801.11040,1.90320
800.08070,1.90419
799.05099,1.90551
798.02129,1.90659
796.99158,1.90704
795.96188,1.90707
794.93217,1.90715
793.90247,1.90768
792.87276,1.90878
791.84306,1.91021
790.81335,1.91170
789.78365,1.91311
788.75394,1.91430
787.72424,1.91503
786.69453,1.91533
785.66483,1.91558
784.63512,1.91604
783.60542,1.91656
782.57571,1.91682
781.54601,1.91687
780.51630,1.91684
779.48660,1.91670
778.45689,1.91633
777.42719,1.91567
776.39748,1.91477
775.36778,1.91377
774.33807,1.91272
773.30837,1.91155
772.27866,1.91033
771.24896,1.90941
770.21925,1.90894
769.18955,1.90861
768.15984,1.90795
767.13014,1.90673
766.10043,1.90516
765.07073,1.90427
764.04102,1.90496
763.01132,1.90701
761.98161,1.90971
760.95191,1.91251
759.92221,1.91496
758.89250,1.91661
757.86280,1.91742
756.83309,1.91794
755.80339,1.91840
754.77368,1.91849
753.74398,1.91799
752.71427,1.91694
751.68457,1.91539
750.65486,1.91344
749.62516,1.91111
748.59545,1.90833
747.56575,1.90503
746.53604,1.90124
745.50634,1.89710
744.47663,1.89252
743.44693,1.88743
742.41722,1.88239
741.38752,1.87848
740.35781,1.87642
739.32811,1.87569
738.29840,1.87525
737.26870,1.87455
736.23899,1.87349
735.20929,1.87220
734.17958,1.87084
733.14988,1.86967
732.12017,1.86898
731.09047,1.86846
730.06076,1.86756
729.03106,1.86627
728.00135,1.86480
726.97165,1.86335
725.94194,1.86190
724.91224,1.86037
723.88253,1.85899
722.85283,1.85782
721.82312,1.85670
720.79342,1.85566
719.76371,1.85441
718.73401,1.85297
717.70430,1.85211
716.67460,1.85220
715.64490,1.85286
714.61519,1.85386
713.58549,1.85532
712.55578,1.85706
711.52608,1.85896
710.49637,1.86120
709.46667,1.86360
708.43696,1.86581
707.40726,1.86761
706.37755,1.86898
705.34785,1.87004
704.31814,1.87083
703.28844,1.87126
702.25873,1.87145
701.22903,1.87164
700.19932,1.87195
699.16962,1.87223
698.13991,1.87213
697.11021,1.87160
696.08050,1.87081
695.05080,1.86997
694.02109,1.86942
692.99139,1.86916
691.96168,1.86867
690.93198,1.86757
689.90227,1.86613
688.87257,1.86470
687.84286,1.86344
686.81316,1.86246
685.78345,1.86160
684.75375,1.86052
683.72404,1.85893
682.69434,1.85680
681.66463,1.85437
680.63493,1.85183
679.60522,1.84954
678.57552,1.84725
677.54581,1.84495
676.51611,1.84283
675.48640,1.84071
674.45670,1.83840
673.42699,1.83619
672.39729,1.83442
671.36759,1.83305
670.33788,1.83165
669.30818,1.82991
668.27847,1.82822
667.24877,1.82689
666.21906,1.82587
665.18936,1.82535
664.15965,1.82527
663.12995,1.82528
662.10024,1.82529
661.07054,1.82526
660.04083,1.82501
659.01113,1.82460
657.98142,1.82438
656.95172,1.82446
655.92201,1.82489
654.89231,1.82569
653.86260,1.82619
652.83290,1.82665
651.80319,1.82752
650.77349,1.82899
649.74378,1.83116
648.71408,1.83358
647.68437,1.83564
646.65467,1.83739
645.62496,1.83936
644.59526,1.84203
643.56555,1.84546
642.53585,1.84870
641.50614,1.85100
640.47644,1.85239
639.44673,1.85250
638.41703,1.85113
637.38732,1.84879
636.35762,1.84595
635.32791,1.84265
634.29821,1.83881
633.26850,1.83441
632.23880,1.82961
631.20909,1.82508
630.17939,1.82119
629.14968,1.81810
628.11998,1.81661
627.09028,1.81672
626.06057,1.81761
625.03087,1.81929
624.00116,1.82213
622.97146,1.82656
621.94175,1.83308
620.91205,1.84085
619.88234,1.84804
618.85264,1.85376
617.82293,1.85820
616.79323,1.86139
615.76352,1.86250
614.73382,1.86071
613.70411,1.85637
612.67441,1.85005
611.64470,1.84166
610.61500,1.84166
609.58529,1.84166
608.55559,1.84166
607.52588,1.84166
606.49618,1.84166
605.46647,1.84166
604.43677,1.84166
603.40706,1.84166
602.37736,1.84166
601.34765,1.84166
600.31795,1.84166
599.28824,1.84166
